1579710727.9020782;51.95197677612305;0
1579710727.9080968;47.546783447265625;0
1579710727.9081151;51.19119644165039;0
1579710727.9081285;61.40278625488281;0
1579710727.9081402;73.50774383544922;0
1579710727.9081523;81.52862548828125;0
1579710727.9081635;80.74495697021484;0
1579710727.9081743;69.4854507446289;0
1579710727.9161232;48.32267761230469;0
1579710727.9161422;18.52254295349121;0
1579710727.9161556;-18.536792755126953;0
1579710728.0909154;-61.882850646972656;0
1579710728.0978487;-108.74727630615234;0
1579710728.0978596;-153.56643676757812;0
1579710728.0978673;-188.95208740234375;0
1579710728.0978744;-208.0624542236328;0
1579710728.097881;-207.56674194335938;0
1579710728.0978875;-188.27432250976562;0
1579710728.0978935;-157.32110595703125;0
1579710728.0978997;-122.65255737304688;0
1579710728.0979059;-90.33247375488281;0
1579710728.0979195;-63.166221618652344;0
1579710728.2107127;30.610000610351562;0
1579710728.2190504;30.610000610351562;0
1579710728.2190628;30.610000610351562;0
1579710728.2190711;30.610000610351562;0
1579710728.2190793;30.610000610351562;0
1579710728.2190862;30.610000610351562;0
1579710728.2190924;30.610000610351562;0
1579710728.219099;30.610000610351562;0
1579710728.295926;-40.890785217285156;0
1579710728.3061156;-22.33075714111328;0
1579710728.306139;-6.7628278732299805;0
1579710728.306155;5.647758483886719;0
1579710728.306171;14.054689407348633;0
1579710728.3061872;17.60519790649414;0
1579710728.3062046;16.693859100341797;0
1579710728.3062305;12.532367706298828;0
1579710728.3062453;7.202978134155273;0
1579710728.3062594;2.7177066802978516;0
1579710728.3062744;0.1381683349609375;0
1579710728.4307833;-0.2859230041503906;0
1579710728.4355114;0.7024059295654297;0
1579710728.4355304;1.9330310821533203;0
1579710728.4355516;2.244192123413086;0
1579710728.4355638;1.3826026916503906;0
1579710728.435576;-0.6778030395507812;0
1579710728.4355884;-3.8284683227539062;0
1579710728.4355996;-7.893489837646484;0
1579710728.4356105;-12.061225891113281;0
1579710728.4356587;-14.27023696899414;0
1579710728.4362135;-11.400718688964844;0
1579710728.5834765;0.2599849998950958;0
1579710728.5890229;0.2689499855041504;0
1579710728.5890355;0.2753535509109497;0
1579710728.5890508;0.27791497111320496;0
1579710728.5890582;0.2791956961154938;0
1579710728.5890656;0.281757116317749;0
1579710728.6207876;-0.3960609436035156;0
1579710728.6286168;19.51343536376953;0
1579710728.6286283;45.957122802734375;0
1579710728.6286368;73.46575927734375;0
1579710728.628644;95.38166809082031;0
1579710728.6286514;106.52417755126953;0
1579710728.628657;105.34390258789062;0
1579710728.6286633;94.07527160644531;0
1579710728.6286693;77.11286926269531;0
1579710728.628676;58.85643768310547;0
1579710728.628683;41.888145446777344;0
1579710728.760648;26.915916442871094;0
1579710728.7671378;13.614700317382812;0
1579710728.7671547;1.9443283081054688;0
1579710728.7671676;-7.404960632324219;0
1579710728.7671793;-13.324516296386719;0
1579710728.7672005;-15.20220947265625;0
1579710728.771797;-13.66259765625;0
1579710728.7718182;-10.125289916992188;0
1579710728.7718325;-6.2245941162109375;0
1579710728.7718449;-3.1622161865234375;0
1579710728.7718565;-1.198028564453125;0
1579710728.9906445;0.300506591796875;0
1579710728.9953945;2.2822418212890625;0
1579710728.995407;5.527473449707031;0
1579710728.9954197;10.085906982421875;0
1579710728.995429;15.237350463867188;0
1579710728.9954357;19.796104431152344;0
1579710728.995442;22.520309448242188;0
1579710728.995448;22.977439880371094;0
1579710728.9954538;21.426620483398438;0
1579710728.9954598;18.82630157470703;0
1579710728.9954658;16.337135314941406;0
1579710729.1405234;14.901313781738281;0
1579710729.145813;14.724685668945312;0
1579710729.1458254;15.31134033203125;0
1579710729.145833;15.863510131835938;0
1579710729.1458395;15.446723937988281;0
1579710729.1458454;13.702423095703125;0
1579710729.1458519;10.828392028808594;0
1579710729.1458595;7.496498107910156;0
1579710729.1458657;4.609977722167969;0
1579710729.1458719;2.953338623046875;0
1579710729.1458786;2.9702224731445312;0
1579710729.320912;4.501434326171875;0
1579710729.3285215;7.1344451904296875;0
1579710729.3285327;10.194267272949219;0
1579710729.328541;13.168235778808594;0
1579710729.3285537;15.984962463378906;0
1579710729.3285604;19.052085876464844;0
1579710729.3285663;23.22808074951172;0
1579710729.3285723;29.45136260986328;0
1579710729.3285778;38.092918395996094;0
1579710729.3285847;48.513336181640625;0
1579710729.328591;58.7855224609375;0
1579710729.5406728;66.17752075195312;0
1579710729.5461416;68.165771484375;0
1579710729.5461624;63.16041564941406;0
1579710729.5461764;51.16416931152344;0
1579710729.5461907;33.89561080932617;0
1579710729.5462036;14.199249267578125;0
1579710729.546218;-4.477714538574219;0
1579710729.5462306;-18.985591888427734;0
1579710729.5462458;-26.863685607910156;0
1579710729.5462582;-27.495445251464844;0
1579710729.5462704;-20.839839935302734;0
1579710729.640672;-8.39065933227539;0
1579710729.6479177;6.912078857421875;0
1579710729.6479404;21.659645080566406;0
1579710729.6479564;32.59026336669922;0
1579710729.6479712;37.62126159667969;0
1579710729.647986;36.178226470947266;0
1579710729.648002;29.23410415649414;0
1579710729.6480155;18.697317123413086;0
1579710729.6480293;6.845054626464844;0
1579710729.6480436;-4.445158004760742;0
1579710729.648057;-13.86294937133789;0
1579710729.8405874;-20.41876792907715;0
1579710729.8537846;-23.52395248413086;0
1579710729.8537962;-23.005390167236328;0
1579710729.8538048;-19.313819885253906;0
1579710729.8538122;-13.680501937866211;0
1579710729.8538191;-7.996216773986816;0
1579710729.8538256;-4.338568687438965;0
1579710729.8538318;-4.469111442565918;0
1579710729.8538377;-9.209567070007324;0
1579710729.8538437;-18.180370330810547;0
1579710729.85385;-30.092979431152344;0
1579710729.9706109;-43.104793548583984;0
1579710729.9765816;-55.29254150390625;0
1579710729.9765942;-64.96971130371094;0
1579710729.9766026;-71.18414306640625;0
1579710729.9766095;-74.02037048339844;0
1579710729.9766157;-74.67231750488281;0
1579710729.976622;-74.87361145019531;0
1579710729.9769654;-76.05924224853516;0
1579710729.9769797;-78.44963073730469;0
1579710729.97699;-80.7225341796875;0
1579710729.9769993;-80.44917297363281;0
1579710730.140734;0.28303784132003784;0
1579710730.1484249;0.28431856632232666;0
1579710730.148447;0.28431856632232666;0
1579710730.148463;0.28431856632232666;0
1579710730.1484766;0.28303784132003784;0
1579710730.1485014;0.28816068172454834;0
1579710730.1540484;-75.26229858398438;0
1579710730.1540782;-63.81758117675781;0
1579710730.1540926;-46.601646423339844;0
1579710730.1541054;-25.642818450927734;0
1579710730.1541178;-3.8041229248046875;0
1579710730.1541305;16.018749237060547;0
1579710730.1541424;31.647613525390625;0
1579710730.154155;41.941471099853516;0
1579710730.1542428;46.72332000732422;0
1579710730.1646347;46.992027282714844;0
1579710730.1646562;44.76021194458008;0
1579710730.2406342;30.6299991607666;0
1579710730.2484715;30.6299991607666;0
1579710730.2485027;30.6299991607666;0
1579710730.248519;30.6299991607666;0
1579710730.248533;30.59000015258789;0
1579710730.2485473;30.59000015258789;0
1579710730.2485614;30.59000015258789;0
1579710730.2485752;30.59000015258789;0
1579710730.3417997;42.095394134521484;0
1579710730.3478222;40.51072311401367;0
1579710730.3478384;40.30674743652344;0
1579710730.3478503;40.29052734375;0
1579710730.3478608;38.6632080078125;0
1579710730.3478758;33.85577392578125;0
1579710730.3478878;25.44051742553711;0
1579710730.3478994;14.161798477172852;0
1579710730.3479106;1.9468269348144531;0
1579710730.3479228;-9.003589630126953;0
1579710730.3479338;-16.92734146118164;0
1579710730.5008876;-21.081317901611328;0
1579710730.5087702;-21.771926879882812;0
1579710730.5087895;-20.02068328857422;0
1579710730.5088038;-16.986713409423828;0
1579710730.5088162;-13.68597412109375;0
1579710730.5088282;-10.726749420166016;0
1579710730.5088398;-8.294305801391602;0
1579710730.508852;-6.317176818847656;0
1579710730.508863;-4.561206817626953;0
1579710730.508874;-2.785869598388672;0
1579710730.508886;-0.8449249267578125;0
1579710730.6917183;1.4627914428710938;0
1579710730.7014983;4.240146636962891;0
1579710730.7015178;7.4615631103515625;0
1579710730.7015324;10.619491577148438;0
1579710730.7015452;12.77436637878418;0
1579710730.7015574;12.854686737060547;0
1579710730.7015686;10.234214782714844;0
1579710730.7015803;5.170051574707031;0
1579710730.7015908;-1.4593429565429688;0
1579710730.701601;-8.207927703857422;0
1579710730.7016194;-14.104934692382812;0
1579710730.8306706;-18.633647918701172;0
1579710730.844384;-21.180011749267578;0
1579710730.8443956;-21.101497650146484;0
1579710730.8444033;-17.393238067626953;0
1579710730.8444102;-9.377063751220703;0
1579710730.8444166;2.5653915405273438;0
1579710730.8444238;16.314594268798828;0
1579710730.84443;28.718074798583984;0
1579710730.844436;36.6341552734375;0
1579710730.844442;38.30943298339844;0
1579710730.844448;34.25978088378906;0
1579710731.0130882;26.78907012939453;0
1579710731.0202572;18.729461669921875;0
1579710731.0203195;12.465744018554688;0
1579710731.0203497;9.036643981933594;0
1579710731.0203693;8.060771942138672;0
1579710731.0204163;8.26175308227539;0
1579710731.020438;7.782905578613281;0
1579710731.0204492;5.08905029296875;0
1579710731.0204616;-0.31024932861328125;0
1579710731.0204728;-7.570995330810547;0
1579710731.0204837;-14.464492797851562;0
1579710731.2120903;-18.463916778564453;0
1579710731.2120988;-17.965404510498047;0
1579710731.2121055;-13.388851165771484;0
1579710731.2121124;-6.992710113525391;0
1579710731.2121184;-1.5663909912109375;0
1579710731.2121248;0.8825416564941406;0
1579710731.2121308;0.21533203125;0
1579710731.2121367;-2.5081443786621094;0
1579710731.2121506;-5.777141571044922;0
1579710731.212157;-8.794788360595703;0
1579710731.212163;-11.670722961425781;0
1579710731.3918662;-14.930282592773438;0
1579710731.398222;-19.111392974853516;0
1579710731.3982468;-24.197479248046875;0
1579710731.398263;-29.802112579345703;0
1579710731.3982785;-35.10965347290039;0
1579710731.3982935;-39.24786376953125;0
1579710731.3983083;-41.179603576660156;0
1579710731.3989034;-40.13070297241211;0
1579710731.3989189;-36.01847457885742;0
1579710731.3989418;-29.68633270263672;0
1579710731.3989556;-22.837764739990234;0
1579710731.6107554;-17.393264770507812;0
1579710731.6227405;-14.548816680908203;0
1579710731.6227534;-14.161014556884766;0
1579710731.6227612;-14.714637756347656;0
1579710731.622768;-14.048870086669922;0
1579710731.6227746;-10.713111877441406;0
1579710731.6227815;-4.708827972412109;0
1579710731.622788;2.636089324951172;0
1579710731.622795;9.419475555419922;0
1579710731.6228027;14.163211822509766;0
1579710731.622816;16.099510192871094;0
1579710731.6228757;0.2868799865245819;0
1579710731.6228828;0.28816068172454834;0
1579710731.6228893;0.28816068172454834;0
1579710731.622895;0.28816068172454834;0
1579710731.6229012;0.290722131729126;0
1579710731.622907;0.290722131729126;0
1579710731.6911702;15.52288818359375;0
1579710731.6952682;13.128589630126953;0
1579710731.6952918;9.608654022216797;0
1579710731.6953099;5.666156768798828;0
1579710731.6953225;1.7087135314941406;0
1579710731.6953316;-1.7657318115234375;0
1579710731.6953378;-4.1573028564453125;0
1579710731.6953433;-4.87408447265625;0
1579710731.6953495;-3.6783103942871094;0
1579710731.7020326;-0.7030067443847656;0
1579710731.7020502;3.2657508850097656;0
1579710731.9043386;7.519096374511719;0
1579710731.9211512;11.798887252807617;0
1579710731.9211705;16.30911636352539;0
1579710731.921185;21.4491024017334;0
1579710731.9211984;26.976831436157227;0
1579710731.9212108;31.80366325378418;0
1579710731.9212234;34.41865539550781;0
1579710731.921235;33.65684509277344;0
1579710731.921246;29.33488655090332;0
1579710731.9215915;22.386783599853516;0
1579710731.921608;14.499109268188477;0
1579710732.0316896;7.358619689941406;0
1579710732.037351;2.008556365966797;0
1579710732.037371;-1.4263477325439453;0
1579710732.0373855;-3.3759994506835938;0
1579710732.037399;-4.183172225952148;0
1579710732.037412;-3.8762741088867188;0
1579710732.0374246;-2.3099727630615234;0
1579710732.0374477;0.6039352416992188;0
1579710732.038081;4.581613540649414;0
1579710732.038097;8.680511474609375;0
1579710732.0381105;11.875223159790039;0
1579710732.2210639;13.246744155883789;0
1579710732.226286;12.134057998657227;0
1579710732.2263033;8.504947662353516;0
1579710732.2263176;2.971179962158203;0
1579710732.2263258;-3.371622085571289;0
1579710732.2263322;-9.101633071899414;0
1579710732.2263389;-12.901557922363281;0
1579710732.2263446;-14.142265319824219;0
1579710732.2263508;-12.807889938354492;0
1579710732.2263567;-9.599828720092773;0
1579710732.2263627;-5.607994079589844;0
1579710732.2263777;30.610000610351562;0
1579710732.2263842;30.610000610351562;0
1579710732.2263896;30.610000610351562;0
1579710732.2263956;30.610000610351562;0
1579710732.2264013;30.610000610351562;0
1579710732.2264068;30.610000610351562;0
1579710732.226413;30.610000610351562;0
1579710732.2264192;30.610000610351562;0
1579710732.4006274;-1.8736324310302734;0
1579710732.4111965;0.7732391357421875;0
1579710732.4112153;1.7919559478759766;0
1579710732.4112291;0.9845638275146484;0
1579710732.411242;-1.478830337524414;0
1579710732.4112537;-5.1534576416015625;0
1579710732.4112647;-9.194196701049805;0
1579710732.411276;-12.505250930786133;0
1579710732.4112868;-14.073843002319336;0
1579710732.4112976;-13.347917556762695;0
1579710732.4113092;-10.566083908081055;0
1579710732.5527298;-6.787118911743164;0
1579710732.5599918;-3.3776779174804688;0
1579710732.560013;-1.1964216232299805;0
1579710732.5600307;-0.4403839111328125;0
1579710732.5600455;-0.5320892333984375;0
1579710732.5600605;-0.4955778121948242;0
1579710732.560075;0.3923778533935547;0
1579710732.560089;2.247356414794922;0
1579710732.5601025;4.53300666809082;0
1579710732.5601163;6.21514892578125;0
1579710732.5601306;6.374171257019043;0
1579710732.7428918;4.8925933837890625;0
1579710732.7559755;2.344479560852051;0
1579710732.7559876;0.03274345397949219;0
1579710732.7559967;-0.785670280456543;0
1579710732.756004;0.2534170150756836;0
1579710732.7560108;2.618764877319336;0
1579710732.7560174;5.093263626098633;0
1579710732.7563107;6.559507369995117;0
1579710732.756319;6.583583831787109;0
1579710732.7563257;5.30085563659668;0
1579710732.7563314;3.319517135620117;0
1579710732.9006915;1.2920589447021484;0
1579710732.9064968;-0.22829818725585938;0
1579710732.9065213;-0.8579387664794922;0
1579710732.906538;0.000843048095703125;0
1579710732.906555;2.8981590270996094;0
1579710732.9065723;8.015811920166016;0
1579710732.9065883;14.705822944641113;0
1579710732.906604;21.387493133544922;0
1579710732.9066193;25.995628356933594;0
1579710732.9066346;27.133159637451172;0
1579710732.9066494;24.512062072753906;0
1579710733.0763931;19.135173797607422;0
1579710733.0764155;12.651878356933594;0
1579710733.0764337;6.342580795288086;0
1579710733.0764506;0.5907468795776367;0
1579710733.0853186;-4.627851486206055;0
1579710733.0853367;-9.044950485229492;0
1579710733.085349;-11.62464714050293;0
1579710733.0853603;-10.913644790649414;0
1579710733.085371;-6.336296081542969;0
1579710733.0853913;0.8490085601806641;0
1579710733.0853994;7.806095123291016;0
1579710733.085406;0.28816068172454834;0
1579710733.0854118;0.290722131729126;0
1579710733.0854177;0.290722131729126;0
1579710733.0854237;0.28944140672683716;0
1579710733.0854294;0.28816068172454834;0
1579710733.0854354;0.28944140672683716;0
1579710733.2605174;11.220674514770508;0
1579710733.2605357;9.040141105651855;0
1579710733.2605503;1.7268695831298828;0
1579710733.2605646;-8.22054386138916;0
1579710733.265029;-17.65875816345215;0
1579710733.2650402;-24.53373146057129;0
1579710733.2650476;-28.68436050415039;0
1579710733.2650542;-30.985729217529297;0
1579710733.265068;-32.3626708984375;0
1579710733.2650754;-32.733577728271484;0
1579710733.265082;-31.398704528808594;0
1579710733.451561;-27.74993133544922;0
1579710733.456402;-22.166183471679688;0
1579710733.456421;-15.969038009643555;0
1579710733.4564347;-10.338165283203125;0
1579710733.4564598;-5.916596412658691;0
1579710733.4564836;-2.571249008178711;0
1579710733.456497;-0.09466361999511719;0
1579710733.4565096;1.0800838470458984;0
1579710734.214872;30.6299991607666;0
1579710734.21489;30.6299991607666;0
1579710734.2149045;30.6299991607666;0
1579710734.2149181;30.6299991607666;0
1579710734.296206;0.037207603454589844;0
1579710734.3091176;-0.41646724939346313;0
1579710734.3091395;-2.052457809448242;0
1579710734.309156;-4.197450160980225;0
1579710734.3091707;-6.223217487335205;0
1579710734.3091857;-7.389598369598389;0
1579710734.3092108;-7.257255554199219;0
1579710734.3092253;-5.637424468994141;0
1579710734.3092475;-2.6399059295654297;0
1579710734.3092606;1.746030330657959;0
1579710734.3092725;7.141193389892578;0
1579710734.4829242;12.852408409118652;0
1579710734.4937997;17.748136520385742;0
1579710734.493822;20.200254440307617;0
1579710734.4938374;19.2479305267334;0
1579710734.4938514;14.819002151489258;0
1579710734.4938662;8.18055248260498;0
1579710734.49388;1.4349501132965088;0
1579710734.4938936;-3.6702311038970947;0
1579710734.4939077;-6.326667785644531;0
1579710734.4939208;-6.754881858825684;0
1579710734.493934;-5.752885818481445;0
1579710734.591875;0.28816068172454834;0
1579710734.595412;0.290722131729126;0
1579710734.595424;0.28816068172454834;0
1579710734.5954323;0.2920028269290924;0
1579710734.5954392;0.28816068172454834;0
1579710734.5954528;0.290722131729126;0
1579710734.630663;-4.2371087074279785;0
1579710734.6415362;-2.5983071327209473;0
1579710734.6415489;-0.8194916248321533;0
1579710734.6415575;1.0678495168685913;0
1579710734.641565;2.9542665481567383;0
1579710734.641578;4.565978527069092;0
1579710734.641586;5.530735969543457;0
1579710734.6415923;5.7723283767700195;0
1579710734.641598;5.289613246917725;0
1579710734.641604;4.058732986450195;0
1579710734.64161;2.0863020420074463;0
1579710734.8006287;-0.424877405166626;0
1579710734.8080146;-2.859705686569214;0
1579710734.8080366;-4.092159271240234;0
1579710734.8080523;-3.2464258670806885;0
1579710734.8080695;-0.21549415588378906;0
1579710734.8080862;4.056086540222168;0
1579710734.8081005;7.869745254516602;0
1579710734.8081148;9.477590560913086;0
1579710734.8086512;8.326253890991211;0
1579710734.8086667;5.137255668640137;0
1579710734.8086789;1.6297752857208252;0
1579710734.960624;-0.516693115234375;0
1579710734.9692283;-0.8099050521850586;0
1579710734.9692476;0.07751083374023438;0
1579710734.9692621;0.8548521995544434;0
1579710734.969276;0.7761902809143066;0
1579710734.9692872;0.0797567367553711;0
1579710734.9692996;-0.38721179962158203;0
1579710734.9693093;0.052503108978271484;0
1579710734.9693274;0.9474020004272461;0
1579710734.9693391;1.1734123229980469;0
1579710734.9693496;-0.314424991607666;0
1579710735.1484616;-3.4232401847839355;0
1579710735.1484766;-6.804142951965332;0
1579710735.148489;-8.806050300598145;0
1579710735.148501;-8.72156810760498;0
1579710735.148512;-7.249993324279785;0
1579710735.1485257;-6.032440185546875;0
1579710735.148537;-6.57526159286499;0
1579710735.1485484;-8.855020523071289;0
1579710735.14856;-11.182229042053223;0
1579710735.1485715;-11.450323104858398;0
1579710735.1485825;-8.536434173583984;0
1579710735.3275921;-3.038060188293457;0
1579710735.3276145;2.915729522705078;0
1579710735.3276925;6.905796051025391;0
1579710735.3277144;7.508230209350586;0
1579710735.3277292;4.77691125869751;0
1579710735.333175;-0.024478435516357422;0
1579710735.3331897;-5.176463603973389;0
1579710735.3332112;-9.284402847290039;0
1579710735.3332236;-11.46873664855957;0
1579710735.3332353;-11.2759428024292;0
1579710735.3332462;-8.452033042907715;0
1579710735.5109634;-3.163088798522949;0
1579710735.5190105;3.9739151000976562;0
1579710735.5190337;11.41354751586914;0
1579710735.5190496;17.32016944885254;0
1579710735.5190635;20.006582260131836;0
1579710735.5190778;18.76352882385254;0
1579710735.519092;14.261189460754395;0
1579710735.5191064;8.126633644104004;0
1579710735.5191195;2.031802177429199;0
1579710735.5191343;-2.9900569915771484;0
1579710735.519148;-6.523344993591309;0
1579710735.7417111;-8.597372055053711;0
1579710735.749039;-8.736871719360352;0
1579710735.7490559;-6.563167095184326;0
1579710735.749065;-2.1016292572021484;0
1579710736.2399619;30.649999618530273;0
1579710736.2399766;30.649999618530273;0
1579710736.2399888;30.649999618530273;0
1579710736.3513868;-0.9967403411865234;0
1579710736.3591619;1.7299587726593018;0
1579710736.3591812;1.1130058765411377;0
1579710736.3591962;-2.933948516845703;0
1579710736.3592186;-7.997649669647217;0
1579710736.3592324;-10.565411567687988;0
1579710736.3592453;-8.57944107055664;0
1579710736.359258;-2.650308132171631;0
1579710736.3592703;4.344159126281738;0
1579710736.3592823;8.97751235961914;0
1579710736.3592944;9.591268539428711;0
1579710736.5341456;6.841742038726807;0
1579710736.5419028;3.403839111328125;0
1579710736.5419283;1.9401414394378662;0
1579710736.5419412;3.6417293548583984;0
1579710736.5419536;7.490557670593262;0
1579710736.5419652;11.087967872619629;0
1579710736.5419767;12.012290954589844;0
1579710736.5419874;9.030945777893066;0
1579710736.5419986;2.825913667678833;0
1579710736.5420098;-4.337172031402588;0
1579710736.5420208;-9.501755714416504;0
1579710736.6907902;-10.522133827209473;0
1579710736.69578;-6.932801246643066;0
1579710736.6958022;-0.2730398178100586;0
1579710736.6958187;6.786924362182617;0
1579710736.6958528;11.55852222442627;0
1579710736.6958663;12.142778396606445;0
1579710736.695879;8.177589416503906;0
1579710736.6958916;0.6601114273071289;0
1579710736.6959045;-8.359945297241211;0
1579710736.6959171;-16.511104583740234;0
1579710736.6959295;-21.53513526916504;0
1579710736.8711588;-21.852083206176758;0
1579710736.8765771;-17.072765350341797;0
1579710736.8765962;-8.006157875061035;0
1579710736.876609;2.866098403930664;0
1579710736.8766212;12.251741409301758;0
1579710736.8766332;16.79698371887207;0
1579710736.8766441;14.402726173400879;0
1579710736.876655;5.378750324249268;0
1579710736.876666;-7.352948188781738;0
1579710736.876677;-19.30569076538086;0
1579710736.8766885;-26.188220977783203;0
1579710737.0317578;-25.766651153564453;0
1579710737.047084;-18.63831329345703;0
1579710737.0471013;-7.794595718383789;0
1579710737.047114;2.874136447906494;0
1579710737.047443;10.28431510925293;0
1579710737.0474522;13.15114974975586;0
1579710737.047459;11.904596328735352;0
1579710737.0474648;7.944136619567871;0
1579710737.047471;2.458889961242676;0
1579710737.0474772;-3.7339744567871094;0
1579710737.0474834;-10.128473281860352;0
1579710737.2008622;-15.86474609375;0
1579710737.2086527;-19.5859375;0
1579710737.2086682;-19.661510467529297;0
1579710737.2086759;-15.341100692749023;0
1579710737.2086825;-7.464159965515137;0
1579710737.208689;1.5372803211212158;0
1579710737.2086957;8.52866268157959;0
1579710737.2087016;11.170175552368164;0
1579710737.2087154;9.046243667602539;0
1579710737.2087216;3.9223251342773438;0
1579710737.2087286;-1.0966472625732422;0
1579710737.404024;-3.4235663414001465;0
1579710737.4040422;-1.7145752906799316;0
1579710737.4040565;3.20877742767334;0
1579710737.4040704;9.30600357055664;0
1579710737.4040916;14.275979995727539;0
1579710737.4041057;16.50322151184082;0
1579710737.4041195;15.300814628601074;0
1579710737.404133;11.005325317382812;0
1579710737.4041474;4.425551414489746;0
1579710737.404161;-3.2444956302642822;0
1579710737.4041748;-10.516758918762207;0
1579710737.5741355;-15.775625228881836;0
1579710737.5837317;-17.748098373413086;0
1579710737.5837514;-15.953609466552734;0
1579710737.58376;-11.196316719055176;0
1579710737.583768;-5.232024192810059;0
1579710737.5837753;-0.14684155583381653;0
1579710737.5837858;2.6130380630493164;0
1579710737.5837955;2.338998317718506;0
1579710737.5838022;-0.6064105033874512;0
1579710737.5838535;-5.458566665649414;0
1579710737.5838675;-11.25855827331543;0
1579710737.583934;0.2868799865245819;0
1579710737.5839405;0.28944140672683716;0
1579710737.5839465;0.2868799865245819;0
1579710737.5839527;0.28944140672683716;0
1579710737.5839586;0.2868799865245819;0
1579710737.5839655;0.28303784132003784;0
1579710737.7729988;-16.84964370727539;0
1579710737.779113;-20.81467628479004;0
1579710737.779125;-21.88905906677246;0
1579710737.7791328;-19.58911895751953;0
1579710737.77914;-14.62441635131836;0
1579710737.779435;-8.970149993896484;0
1579710737.7794433;-4.846260070800781;0
1579710737.77945;-3.4971160888671875;0
1579710737.7794561;-4.610734939575195;0
1579710737.779462;-6.296674728393555;0
1579710737.779468;-6.694565773010254;0
1579710737.8907273;-4.939327239990234;0
1579710737.8969042;-1.9588956832885742;0
1579710737.8969152;0.4966564178466797;0
1579710737.896923;1.0045452117919922;0
1579710737.8969302;-0.1522064208984375;0
1579710737.896937;-1.364065170288086;0
1579710737.8969433;-0.8635597229003906;0
1579710737.8969495;1.8543529510498047;0
1579710737.8969555;5.3502960205078125;0
1579710737.8969624;7.167091369628906;0
1579710737.8969736;5.18950080871582;0
1579710738.0960786;-0.9715805053710938;0
1579710738.1024187;-9.70785903930664;0
1579710738.1024365;-18.039894104003906;0
1579710738.1024492;-22.991802215576172;0
1579710738.1024601;-22.581050872802734;0
1579710738.1024783;-16.636470794677734;0
1579710738.102489;-6.814563751220703;0
1579710738.1024992;3.644275665283203;0
1579710738.1025097;10.784393310546875;0
1579710738.1025202;10.94326400756836;0
1579710738.1025307;2.1691818237304688;0
1579710738.2115972;30.6299991607666;0
1579710738.2180731;30.6299991607666;0
1579710738.2180922;30.6299991607666;0
1579710738.218105;30.6299991607666;0
1579710738.2181172;30.6299991607666;0
1579710738.2181284;30.6299991607666;0
1579710738.2181396;30.6299991607666;0
1579710738.2238388;30.6299991607666;0
1579710738.2238653;-14.807518005371094;0
1579710738.2238839;-36.52104187011719;0
1579710738.2239003;-57.984825134277344;0
1579710738.223916;-74.40650939941406;0
1579710738.223931;-83.01795959472656;0
1579710738.223946;-84.09208679199219;0
1579710738.2239609;-80.1805648803711;0
1579710738.2239747;-74.94055938720703;0
1579710738.2239873;-71.51016998291016;0
1579710738.2240016;-71.88302612304688;0
1579710738.224015;-76.5284194946289;0
1579710738.4113207;-84.77693176269531;0
1579710738.4170814;-95.16766357421875;0
1579710738.417093;-105.8529052734375;0
1579710738.4171014;-114.81124877929688;0
1579710738.4174285;-120.19004821777344;0
1579710738.417445;-120.89395141601562;0
1579710738.417457;-116.91902160644531;0
1579710738.417468;-109.26522827148438;0
1579710738.4174788;-99.20193481445312;0
1579710738.41749;-87.52351379394531;0
1579710738.4175007;-74.02603149414062;0
1579710738.59185;-58.16648864746094;0
1579710738.5974853;-40.16693115234375;0
1579710738.5975025;-22.001815795898438;0
1579710738.5975232;-7.2217254638671875;0
1579710738.5975554;0.4072723388671875;0
1579710738.5975752;-0.5878448486328125;0
1579710738.5975938;-7.9842681884765625;0
1579710738.5976095;-16.091964721679688;0
1579710738.5976295;-17.88861083984375;0
1579710738.5976486;-8.044601440429688;0
1579710738.5976684;14.568008422851562;0
1579710738.7506645;46.82704162597656;0
1579710738.756633;83.03173828125;0
1579710738.756647;117.89508056640625;0
1579710738.7566555;148.53570556640625;0
1579710738.7566628;174.13967895507812;0
1579710738.7566695;194.40200805664062;0
1579710738.7566752;207.966064453125;0
1579710738.756681;212.359130859375;0
1579710738.7566874;205.42221069335938;0
1579710738.7566934;187.89041137695312;0
1579710738.756699;164.37564086914062;0
1579710738.9333205;141.8980712890625;0
1579710738.940771;126.79385375976562;0
1579710738.9407825;121.34051513671875;0
1579710738.9407895;122.56814575195312;0
1579710738.940796;124.08587646484375;0
1579710738.9408016;119.50042724609375;0
1579710738.940807;105.78469848632812;0
1579710738.9408138;84.84536743164062;0
1579710738.9408197;62.170684814453125;0
1579710738.9408255;43.83203125;0
1579710738.9408317;33.41717529296875;0
1579710739.0925982;0.28431856632232666;0
1579710739.1020298;0.2868799865245819;0
1579710739.1020517;0.28816068172454834;0
1579710739.102068;0.28944140672683716;0
1579710739.102082;0.28944140672683716;0
1579710739.1020963;0.290722131729126;0
1579710739.1021116;30.132476806640625;0
1579710739.1021264;29.110809326171875;0
1579710739.1021402;23.84368896484375;0
1579710739.1021533;9.08856201171875;0
1579710739.1021674;-16.47283935546875;0
1579710739.1027157;-49.1683349609375;0
1579710739.1027327;-81.644287109375;0
1579710739.1027489;-105.53292846679688;0
1579710739.102763;-114.48089599609375;0
1579710739.1027765;-106.59811401367188;0
1579710739.1027896;-84.5655517578125;0
1579710739.2784226;-54.259552001953125;0
1579710739.2784407;-22.233154296875;0
1579710739.2784557;6.200225830078125;0
1579710739.2784693;27.7833251953125;0
1579710739.2784827;41.0179443359375;0
1579710739.2784972;45.554656982421875;0
1579710739.2785113;41.953155517578125;0
1579710739.278525;31.65887451171875;0
1579710739.2785392;17.325775146484375;0
1579710739.2785523;2.534423828125;0
1579710739.2785661;-8.878265380859375;0
1579710739.4585142;-13.86614990234375;0
1579710739.458533;-11.085418701171875;0
1579710739.4585474;-1.36993408203125;0
1579710739.4585612;12.600494384765625;0
1579710739.4585767;27.206329345703125;0
1579710739.458591;38.907806396484375;0
1579710739.4586153;45.29888916015625;0
1579710739.4586284;45.5477294921875;0
1579710739.458642;40.44366455078125;0
1579710739.4589481;31.967376708984375;0
1579710739.4589815;22.666290283203125;0
1579710739.6415606;14.7760009765625;0
1579710739.647036;9.537445068359375;0
1579710739.6470478;7.04803466796875;0
1579710739.6470559;6.558258056640625;0
1579710739.647062;6.9500732421875;0
1579710739.6470695;7.303558349609375;0
1579710739.6470795;7.07354736328125;0
1579710739.647088;6.20355224609375;0
1579710739.6470947;4.78106689453125;0
1579710739.6471004;3.04119873046875;0
1579710739.6471057;1.1575927734375;0
1579710739.82171;-0.643707275390625;0
1579710739.8300397;-2.0633544921875;0
1579710739.830053;-2.798065185546875;0
1579710739.830061;-2.559600830078125;0
1579710739.8300676;-1.345855712890625;0
1579710739.8300743;0.7352294921875;0
1579710739.8300805;3.346466064453125;0
1579710739.8300872;6.173858642578125;0
1579710739.830094;8.955078125;0
1579710739.8301003;11.55908203125;0
1579710739.830106;13.894775390625;0
1579710739.94101;15.8079833984375;0
1579710739.9470391;17.1937255859375;0
1579710739.947053;17.828521728515625;0
1579710739.9470613;17.707061767578125;0
1579710739.9470682;16.870941162109375;0
1579710739.9470754;15.51837158203125;0
1579710739.9470823;13.820281982421875;0
1579710739.9470882;11.933563232421875;0
1579710739.9470937;9.99078369140625;0
1579710739.9471002;8.030792236328125;0
1579710739.9471064;6.130767822265625;0
1579710740.1515598;4.306610107421875;0
1579710740.1584504;2.613525390625;0
1579710740.1584792;1.09429931640625;0
1579710740.1584918;-0.23004150390625;0
1579710740.1585166;-1.350860595703125;0
1579710740.1585357;-2.293792724609375;0
1579710740.1585548;-3.02294921875;0
1579710740.1585758;-3.599761962890625;0
1579710740.158593;-4.059051513671875;0
1579710740.1586092;-4.53631591796875;0
1579710740.1586235;-5.108306884765625;0
1579710740.2134705;30.6299991607666;0
1579710740.2233305;30.6299991607666;0
1579710740.223349;30.6299991607666;0
1579710740.223362;30.6299991607666;0
1579710740.2233744;30.649999618530273;0
1579710740.223386;30.649999618530273;0
1579710740.2233968;30.649999618530273;0
1579710740.2234075;30.649999618530273;0
1579710740.2913904;-5.79010009765625;0
1579710740.29993;-6.571258544921875;0
1579710740.2999465;-7.276580810546875;0
1579710740.29996;-7.7960357666015625;0
1579710740.3000054;-7.9898223876953125;0
1579710740.3000193;-7.890777587890625;0
1579710740.3000307;-7.587860107421875;0
1579710740.3000422;-7.256500244140625;0
1579710740.3000534;-6.9916534423828125;0
1579710740.3000638;-6.7382659912109375;0
1579710740.3000746;-6.468017578125;0
1579710740.4735343;-6.02410888671875;0
1579710740.4832988;-5.4887237548828125;0
1579710740.4833195;-4.9961700439453125;0
1579710740.4833298;-4.8817291259765625;0
1579710740.483339;-5.3357391357421875;0
1579710740.4833474;-6.37908935546875;0
1579710740.483355;-7.82806396484375;0
1579710740.4833643;-9.261398315429688;0
1579710740.4833734;-10.24847412109375;0
1579710740.483382;-10.449081420898438;0
1579710740.4833906;-9.877731323242188;0
1579710740.5813818;0.28944140672683716;0
1579710740.5881233;0.2920028269290924;0
1579710740.5881426;0.290722131729126;0
1579710740.588155;0.2920028269290924;0
1579710740.5881665;0.2920028269290924;0
1579710740.5881772;0.2920028269290924;0
1579710740.6608784;-8.828369140625;0
1579710740.6692262;-7.8040771484375;0
1579710740.669248;-7.3192901611328125;0
1579710740.6692622;-7.607757568359375;0
1579710740.6692739;-8.646575927734375;0
1579710740.6692858;-10.031524658203125;0
1579710740.6692965;-11.2244873046875;0
1579710740.6693065;-11.649139404296875;0
1579710740.6693163;-11.06158447265625;0
1579710740.669326;-9.510848999023438;0
1579710740.6693366;-7.29986572265625;0
1579710740.8044608;-4.8804931640625;0
1579710740.8092036;-2.66107177734375;0
1579710740.8092172;-1.0534210205078125;0
1579710740.8092263;-0.3514251708984375;0
1579710740.8092363;-0.837646484375;0
1579710740.809243;-2.5843963623046875;0
1579710740.8092496;-5.4218597412109375;0
1579710740.8092556;-8.85821533203125;0
1579710740.8092623;-12.081314086914062;0
1579710740.8092687;-14.325027465820312;0
1579710740.8092747;-14.9840087890625;0
1579710741.0009067;-14.010757446289062;0
1579710741.0125864;-11.89947509765625;0
1579710741.01261;-9.527542114257812;0
1579710741.012628;-7.824981689453125;0
1579710741.0126457;-7.4200897216796875;0
1579710741.0126605;-8.524826049804688;0
1579710741.012675;-10.810028076171875;0
1579710741.012689;-13.656402587890625;0
1579710741.0127037;-16.243026733398438;0
1579710741.012718;-17.903900146484375;0
1579710741.0127318;-18.2208251953125;0
1579710741.1510632;-17.069976806640625;0
1579710741.1610675;-14.761245727539062;0
1579710741.161089;-11.7713623046875;0
1579710741.1611073;-8.857620239257812;0
1579710741.1611218;-6.7120819091796875;0
1579710741.1611352;-5.86639404296875;0
1579710741.1611493;-6.3672332763671875;0
1579710741.1611617;-7.78411865234375;0
1579710741.1611757;-9.290725708007812;0
1579710741.1611896;-9.884567260742188;0
1579710741.1612031;-8.893997192382812;0
1579710741.343716;-6.1155242919921875;0
1579710741.3443453;-2.07550048828125;0
1579710741.3443723;2.3170623779296875;0
1579710741.3443866;6.076141357421875;0
1579710741.3444102;8.467788696289062;0
1579710741.3444328;9.243972778320312;0
1579710741.3444448;8.49176025390625;0
1579710741.3444567;6.6829986572265625;0
1579710741.3444688;4.2018280029296875;0
1579710741.3444903;1.5475921630859375;0
1579710741.3445039;-0.8202972412109375;0
1579710741.5188997;-2.436981201171875;0
1579710741.518914;-2.8526763916015625;0
1579710741.5189254;-1.891448974609375;0
1579710741.5189373;0.2769012451171875;0
1579710741.518948;3.0218505859375;0
1579710741.518959;5.6152496337890625;0
1579710741.518971;7.2337493896484375;0
1579710741.5309873;7.4459381103515625;0
1579710741.5309985;6.1760406494140625;0
1579710741.531007;3.623992919921875;0
1579710741.5310135;0.230438232421875;0
1579710741.691017;-3.562744140625;0
1579710741.702115;-7.1516876220703125;0
1579710741.7021341;-10.079620361328125;0
1579710741.7021468;-11.835983276367188;0
1579710741.702159;-12.208343505859375;0
1579710741.7021706;-11.330337524414062;0
1579710741.7021828;-9.664642333984375;0
1579710741.7021935;-7.9407958984375;0
1579710741.7022052;-6.7621307373046875;0
1579710741.702217;-6.523590087890625;0
1579710741.7022274;-6.99420166015625;0
1579710741.9108949;-7.7662506103515625;0
1579710741.918229;-8.24700927734375;0
1579710741.9182527;-8.029266357421875;0
1579710741.9182699;-7.0615386962890625;0
1579710741.9182837;-5.52777099609375;0
1579710741.9182975;-3.845428466796875;0
1579710741.9183128;-2.330596923828125;0
1579710741.9183269;-1.3147430419921875;0
1579710741.9183414;-0.7999114990234375;0
1579710741.9183547;-0.7126617431640625;0
1579710741.918368;-0.7707061767578125;0
1579710742.0123553;-0.56256103515625;0
1579710742.0183725;0.2469635009765625;0
1579710742.0183916;1.82012939453125;0
1579710742.0184038;3.8909912109375;0
1579710742.0184171;6.067291259765625;0
1579710742.018431;7.8455047607421875;0
1579710742.0184448;9.102203369140625;0
1579710742.0184577;10.12811279296875;0
1579710742.0189388;11.459274291992188;0
1579710742.0189562;13.581329345703125;0
1579710742.0189707;16.371856689453125;0
1579710742.0908842;0.290722131729126;0
1579710742.0969892;0.2920028269290924;0
1579710742.0970018;0.28944140672683716;0
1579710742.0970094;0.290722131729126;0
1579710742.0970168;0.29456427693367004;0
1579710742.0970235;0.2932835519313812;0
1579710742.19144;19.064796447753906;0
1579710742.199194;20.243133544921875;0
1579710742.1992056;18.72266387939453;0
1579710742.1992135;14.10308837890625;0
1579710742.19922;7.24761962890625;0
1579710742.199226;0.056427001953125;0
1579710742.1992328;-5.3486785888671875;0
1579710742.1992385;-7.443023681640625;0
1579710742.1992455;-6.2389068603515625;0
1579710742.1992514;-3.1426849365234375;0
1579710742.199258;-0.5631637573242188;0
1579710742.2309296;30.6299991607666;0
1579710742.2397766;30.6299991607666;0
1579710742.2397985;30.6299991607666;0
1579710742.239814;30.6299991607666;0
1579710742.2398286;30.6299991607666;0
1579710742.2398427;30.6299991607666;0
1579710742.2398672;30.6299991607666;0
1579710742.2398822;30.6299991607666;0
1579710742.3513937;-0.7352447509765625;0
1579710742.3578084;-4.667755126953125;0
1579710742.3578203;-11.64544677734375;0
1579710742.3578289;-19.516403198242188;0
1579710742.3578353;-25.781753540039062;0
1579710742.3578415;-28.571151733398438;0
1579710742.357847;-27.681625366210938;0
1579710742.357853;-24.376937866210938;0
1579710742.3578632;-21.040359497070312;0
1579710742.357875;-20.139305114746094;0
1579710742.3578897;-23.389320373535156;0
1579710742.5417032;-31.322189331054688;0
1579710742.549168;-43.126434326171875;0
1579710742.549201;-56.72099304199219;0
1579710742.5492167;-68.57267761230469;0
1579710742.5492315;-74.15301513671875;0
1579710742.549245;-68.94451904296875;0
1579710742.5493772;-50.30372619628906;0
1579710742.5494;-19.364105224609375;0
1579710742.5494153;18.28253936767578;0
1579710742.5494392;53.88145446777344;0
1579710742.5494535;78.71127319335938;0
1579710742.7209167;87.50692749023438;0
1579710742.726446;80.852783203125;0
1579710742.7264676;64.61128234863281;0
1579710742.7264826;47.04461669921875;0
1579710742.7265174;35.099647521972656;0
1579710742.76108;31.5428466796875;0
1579710742.7738104;34.882240295410156;0
1579710742.7738326;40.98272705078125;0
1579710742.7738473;45.90185546875;0
1579710742.7738714;47.58137512207031;0
1579710742.7738864;46.25602722167969;0
1579710742.8708887;43.3062744140625;0
1579710742.879055;39.932861328125;0
1579710742.8790793;36.405921936035156;0
1579710742.8790948;32.07763671875;0
1579710742.8791099;26.24626922607422;0
1579710742.8791342;18.725555419921875;0
1579710742.879149;10.431472778320312;0
1579710742.8791642;2.8202362060546875;0
1579710742.8791783;-2.7426910400390625;0
1579710742.879192;-5.6933746337890625;0
1579710742.8792055;-6.5837860107421875;0
1579710743.0623167;-6.5892791748046875;0
1579710743.0676928;-7.029029846191406;0
1579710743.067704;-8.550209045410156;0
1579710743.0677128;-10.996940612792969;0
1579710743.06772;-13.498374938964844;0
1579710743.0677273;-15.12115478515625;0
1579710743.0677338;-15.418540954589844;0
1579710743.0677476;-14.703727722167969;0
1579710743.0677538;-13.897781372070312;0
1579710743.0677595;-13.853591918945312;0
1579710743.0677655;-15.168418884277344;0
1579710743.2012694;-17.660972595214844;0
1579710743.2121975;-20.66504669189453;0
1579710743.2122097;-23.23796844482422;0
1579710743.2122178;-24.584678649902344;0
1579710743.2122247;-24.465309143066406;0
1579710743.2122307;-23.157814025878906;0
1579710743.2122445;-21.39447021484375;0
1579710743.2122512;-19.867446899414062;0
1579710743.2122567;-19.06147003173828;0
1579710743.2122624;-18.89977264404297;0
1579710743.2122684;-18.90642547607422;0
1579710743.3965464;-18.33721160888672;0
1579710743.3965647;-16.52850341796875;0
1579710743.396579;-13.352043151855469;0
1579710743.3965936;-9.167396545410156;0
1579710743.396609;-4.822845458984375;0
1579710743.396623;-1.160736083984375;0
1579710743.3966372;1.2581024169921875;0
1579710743.3966513;2.397918701171875;0
1579710743.397251;2.6061553955078125;0
1579710743.3972774;2.3331985473632812;0
1579710743.3972902;2.0259628295898438;0
1579710743.5769384;1.735595703125;0
1579710743.5769563;1.3832855224609375;0
1579710743.5769696;0.746978759765625;0
1579710743.5769837;-0.3652801513671875;0
1579710743.576999;-1.9123001098632812;0
1579710743.577011;-3.603302001953125;0
1579710743.5770233;-4.971138000488281;0
1579710743.5770345;-5.5587158203125;0
1579710743.5770454;-4.930564880371094;0
1579710743.5770562;-3.0605087280273438;0
1579710743.5770695;-0.26735687255859375;0
1579710743.5770812;0.2958449721336365;0
1579710743.5770907;0.29456427693367004;0
1579710743.5771008;0.2958449721336365;0
1579710743.577112;0.2920028269290924;0
1579710743.5771258;0.2958449721336365;0
1579710743.577136;0.28944140672683716;0
1579710743.760882;2.7395782470703125;0
1579710743.7669373;4.9659271240234375;0
1579710743.7669544;5.5311279296875;0
1579710743.7669675;3.9768829345703125;0
1579710743.7669804;0.5312118530273438;0
1579710743.7669997;-4.0671234130859375;0
1579710743.7670126;-8.757225036621094;0
1579710743.767024;-12.702995300292969;0
1579710743.7670352;-15.537864685058594;0
1579710743.7670457;-17.446502685546875;0
1579710743.7670565;-19.139305114746094;0
1579710743.9528244;-21.28278350830078;0
1579710743.963545;-24.13402557373047;0
1579710743.963557;-27.292076110839844;0
1579710743.9635649;-29.850845336914062;0
1579710743.9635715;-30.70795440673828;0
1579710743.9635782;-29.195281982421875;0
1579710743.9635847;-25.203834533691406;0
1579710743.9635909;-19.236236572265625;0
1579710743.963597;-12.348480224609375;0
1579710743.963603;-5.6329345703125;0
1579710743.9636087;0.0703125;0
1579710744.061258;4.323097229003906;0
1579710744.0688167;7.1811676025390625;0
1579710744.068835;8.86810302734375;0
1579710744.0688508;9.596931457519531;0
1579710744.068863;9.821701049804688;0
1579710744.0688837;9.908866882324219;0
1579710744.0688949;9.896072387695312;0
1579710744.0689068;9.564987182617188;0
1579710744.0733445;8.592872619628906;0
1579710744.0738332;6.861427307128906;0
1579710744.0738513;4.598388671875;0
1579710744.2210433;30.649999618530273;0
1579710744.2266357;30.649999618530273;0
1579710744.2266476;30.649999618530273;0
1579710744.2266555;30.649999618530273;0
1579710744.2266622;30.6299991607666;0
1579710744.2266688;30.6299991607666;0
1579710744.226675;30.6299991607666;0
1579710744.226681;30.6299991607666;0
1579710744.2627661;2.2754669189453125;0
1579710744.2695794;0.38288116455078125;0
1579710744.2695918;-0.18029022216796875;0
1579710744.2696006;1.129547119140625;0
1579710744.269608;3.9356613159179688;0
1579710744.269614;6.9754180908203125;0
1579710744.2696226;8.696044921875;0
1579710744.2696314;8.001876831054688;0
1579710744.2696385;4.825653076171875;0
1579710744.2696495;-0.10333251953125;0
1579710744.2696567;-5.65802001953125;0
1579710744.40081;-9.738357543945312;0
1579710744.4101117;-10.715057373046875;0
1579710744.4101322;-8.318374633789062;0
1579710744.4101446;-3.76202392578125;0
1579710744.4101565;1.1657333374023438;0
1579710744.4101684;5.13348388671875;0
1579710744.410179;8.004310607910156;0
1579710744.4101899;10.3670654296875;0
1579710744.4101996;13.094696044921875;0
1579710744.4102104;18.184783935546875;0
1579710744.4102204;27.2762451171875;0
1579710744.5935724;41.06488037109375;0
1579710744.5986426;59.27397918701172;0
1579710744.598655;81.25807189941406;0
1579710744.598663;106.42704010009766;0
1579710744.5986714;133.9317626953125;0
1579710744.5986786;161.93873596191406;0
1579710744.5986848;179.319091796875;0
1579710744.5986903;177.022216796875;0
1579710744.5986965;153.41616821289062;0
1579710744.5987024;116.5184326171875;0
1579710744.5987082;78.25997161865234;0
1579710744.7934802;47.02671813964844;0
1579710744.8020844;24.722244262695312;0
1579710744.802107;8.826522827148438;0
1579710744.802408;-4.497406005859375;0
1579710744.8024406;-17.765365600585938;0
1579710744.8024569;-30.137741088867188;0
1579710744.802473;-39.621917724609375;0
1579710744.8024888;-45.21515655517578;0
1579710744.8032951;-48.139732360839844;0
1579710744.8033128;-50.79339599609375;0
1579710744.8033278;-55.15727996826172;0
1579710744.9319654;-61.4171142578125;0
1579710744.936936;-68.36002349853516;0
1579710744.9369473;-74.42597198486328;0
1579710744.9369557;-77.92198944091797;0
1579710744.9369624;-78.61492156982422;0
1579710744.9369686;-77.880859375;0
1579710744.9369748;-78.00086212158203;0
1579710744.9369807;-80.19297790527344;0
1579710744.9369867;-83.61970520019531;0
1579710744.9369924;-85.31803894042969;0
1579710744.9369986;-81.397216796875;0
1579710745.0909092;0.28944140672683716;0
1579710745.0963433;0.28944140672683716;0
1579710745.096355;0.2920028269290924;0
1579710745.0963633;0.290722131729126;0
1579710745.09637;0.29456427693367004;0
1579710745.0963762;0.2920028269290924;0
1579710745.1107938;-68.60249328613281;0
1579710745.1154222;-44.94795608520508;0
1579710745.1154335;-11.4151611328125;0
1579710745.1154416;27.793392181396484;0
1579710745.1154492;66.07432556152344;0
1579710745.1154563;96.62996673583984;0
1579710745.1265826;114.83863830566406;0
1579710745.1265945;119.78397369384766;0
1579710745.1266074;113.8094482421875;0
1579710745.1266177;101.45950317382812;0
1579710745.1266248;87.96821594238281;0
1579710745.2709992;76.62045288085938;0
1579710745.2767644;67.44563293457031;0
1579710745.2767835;57.41523361206055;0
1579710745.2767959;41.94511413574219;0
1579710745.2768078;15.872077941894531;0
1579710745.2768195;-23.221633911132812;0
1579710745.2768302;-74.53764343261719;0
1579710745.276841;-132.6578826904297;0
1579710745.2768514;-186.07342529296875;0
1579710745.2768614;-221.04400634765625;0
1579710745.2768724;-227.86964416503906;0
1579710745.4630146;-205.77491760253906;0
1579710745.4715447;-162.83041381835938;0
1579710745.4715602;-111.3206787109375;0
1579710745.4715686;-62.09314727783203;0
1579710745.4715753;-21.410980224609375;0
1579710745.4715827;9.49307632446289;0
1579710745.4715889;32.77531433105469;0
1579710745.471595;51.077186584472656;0
1579710745.4716017;65.71753692626953;0
1579710746.2190223;30.6299991607666;0
1579710746.2190309;30.6299991607666;0
1579710746.2190375;30.6299991607666;0
1579710746.3109279;-63.73146438598633;0
1579710746.3164275;-65.35670471191406;0
1579710746.3164463;-63.20756912231445;0
1579710746.316471;-58.737754821777344;0
1579710746.3164845;-53.5986213684082;0
1579710746.3164966;-48.93876647949219;0
1579710746.3165092;-44.95057678222656;0
1579710746.316522;-41.02504348754883;0
1579710746.325027;-36.228553771972656;0
1579710746.3250508;-30.158424377441406;0
1579710746.3250673;-23.306915283203125;0
1579710746.4814124;-16.977874755859375;0
1579710746.487169;-12.74142074584961;0
1579710746.487187;-11.564815521240234;0
1579710746.4872005;-13.128154754638672;0
1579710746.487213;-15.74935531616211;0
1579710746.487225;-17.446136474609375;0
1579710746.487236;-16.984058380126953;0
1579710746.4872468;-14.689109802246094;0
1579710746.4872577;-12.060596466064453;0
1579710746.4872682;-10.813968658447266;0
1579710746.487279;-12.179941177368164;0
1579710746.5836043;0.2971256971359253;0
1579710746.5904343;0.2971256971359253;0
1579710746.5904458;0.2984064221382141;0
1579710746.590454;0.2971256971359253;0
1579710746.5904603;0.2971256971359253;0
1579710746.5904667;0.3022485375404358;0
1579710746.661164;-16.41658592224121;0
1579710746.666142;-22.630178451538086;0
1579710746.6661592;-29.123353958129883;0
1579710746.6661725;-34.24415969848633;0
1579710746.66618;-37.06326675415039;0
1579710746.6661868;-37.71648025512695;0
1579710746.6661925;-36.95555877685547;0
1579710746.6661985;-35.5439338684082;0
1579710746.6662047;-34.082035064697266;0
1579710746.666211;-32.80244064331055;0
1579710746.6662166;-31.131864547729492;0
1579710746.8409755;-27.52139663696289;0
1579710746.8498952;-19.84412956237793;0
1579710746.8499138;-5.985679626464844;0
1579710746.849927;15.459282875061035;0
1579710746.8499384;45.46426010131836;0
1579710746.8499503;84.62693786621094;0
1579710746.8499632;132.5150146484375;0
1579710746.8499749;183.8313751220703;0
1579710746.8499858;228.94363403320312;0
1579710746.8504775;258.0553283691406;0
1579710746.8504913;266.43035888671875;0
1579710746.9946122;255.8951416015625;0
1579710747.006242;231.6197967529297;0
1579710747.0062537;198.4345245361328;0
1579710747.0062664;159.41297912597656;0
1579710747.0062842;116.02920532226562;0
1579710747.0062983;69.39529418945312;0
1579710747.006311;21.754291534423828;0
1579710747.0063179;-22.547847747802734;0
1579710747.006324;-57.96350860595703;0
1579710747.0063295;-79.96174621582031;0
1579710747.0063355;-88.1062240600586;0
1579710747.1909983;-86.13557434082031;0
1579710747.1977122;-80.42759704589844;0
1579710747.1977394;-78.57292175292969;0
1579710747.1977477;-84.45466613769531;0
1579710747.197762;-98.28909301757812;0
1579710747.197769;-116.38667297363281;0
1579710747.1977751;-132.9718780517578;0
1579710747.1977813;-142.53854370117188;0
1579710747.1977868;-143.0155487060547;0
1579710747.1977928;-134.96788024902344;0
1579710747.197799;-119.6461410522461;0
1579710747.3308125;-98.27033996582031;0
1579710747.3376286;-72.41059875488281;0
1579710747.337641;-45.769866943359375;0
1579710747.337649;-24.19059181213379;0
1579710747.337656;-14.76750373840332;0
1579710747.337663;-23.09368896484375;0
1579710747.3376698;-51.90148162841797;0
1579710747.3376768;-98.87809753417969;0
1579710747.3376834;-154.5649871826172;0
1579710747.3376899;-202.84877014160156;0
1579710747.3376958;-227.51510620117188;0
1579710747.5194187;-219.88839721679688;0
1579710747.5194273;-181.57418823242188;0
1579710747.519434;-125.25276184082031;0
1579710747.5194404;-57.59473419189453;0
1579710747.5194468;17.587482452392578;0
1579710747.5194526;96.84268188476562;0
1579710747.5194662;175.37887573242188;0
1579710747.5194721;242.75665283203125;0
1579710747.519478;286.66357421875;0
1579710747.519484;297.38897705078125;0
1579710747.5194898;272.9116516113281;0
1579710747.6963918;220.89044189453125;0
1579710747.6964014;157.02828979492188;0
1579710747.6964078;98.0501708984375;0
1579710747.6964145;56.25691223144531;0
1579710747.6964211;36.295310974121094;0
1579710748.2513697;30.6299991607666;0
1579710748.2513773;30.6299991607666;0
1579710748.4044151;-14.453369140625;0
1579710748.4124084;-14.016067504882812;0
1579710748.4124193;-14.138229370117188;0
1579710748.4124272;-12.693130493164062;0
1579710748.4124346;-9.056045532226562;0
1579710748.4124415;-4.8847503662109375;0
1579710748.4124482;-3.6402130126953125;0
1579710748.4124548;-8.918426513671875;0
1579710748.4124608;-22.8668212890625;0
1579710748.412467;-44.84696960449219;0
1579710748.4124727;-71.42404174804688;0
1579710748.5411682;-97.3720703125;0
1579710748.5480158;-117.09638977050781;0
1579710748.5480306;-126.06504821777344;0
1579710748.5480394;-121.44476318359375;0
1579710748.548047;-102.38639831542969;0
1579710748.548054;-69.85990905761719;0
1579710748.5480602;-26.8314208984375;0
1579710748.5480666;21.924041748046875;0
1579710748.5480728;69.91120910644531;0
1579710748.5480788;109.59129333496094;0
1579710748.5480847;133.99562072753906;0
1579710748.720792;138.44924926757812;0
1579710748.728759;122.47206115722656;0
1579710748.7287712;90.32643127441406;0
1579710748.7287788;50.26728820800781;0
1579710748.7287855;11.999191284179688;0
1579710748.7287917;-16.0045166015625;0
1579710748.7287974;-28.895263671875;0
1579710748.7288036;-26.439346313476562;0
1579710748.7288098;-12.112503051757812;0
1579710748.728816;8.436019897460938;0
1579710748.7288218;29.3780517578125;0
1579710748.9213703;46.56550598144531;0
1579710748.9268157;58.665863037109375;0
1579710748.926835;67.2496337890625;0
1579710748.9268498;76.09349060058594;0
1579710748.9268637;89.30648803710938;0
1579710748.9268763;109.26158142089844;0
1579710748.9268887;135.30874633789062;0
1579710748.926901;163.61151123046875;0
1579710748.9313195;188.46746826171875;0
1579710748.9313369;204.552001953125;0
1579710748.9313498;208.89756774902344;0
1579710749.0659273;201.4698486328125;0
1579710749.0748644;184.66929626464844;0
1579710749.074896;161.65867614746094;0
1579710749.0749128;134.86917114257812;0
1579710749.0749276;105.65965270996094;0
1579710749.075758;74.70472717285156;0
1579710749.0757873;42.99180603027344;0
1579710749.0758033;12.455718994140625;0
1579710749.0758185;-14.289154052734375;0
1579710749.0758324;-34.829315185546875;0
1579710749.0758464;-47.96156311035156;0
1579710749.2532232;-54.207672119140625;0
1579710749.259783;-55.54039001464844;0
1579710749.259802;-54.293243408203125;0
1579710749.2598157;-52.307525634765625;0
1579710749.2598276;-50.31278991699219;0
1579710749.259839;-48.04667663574219;0
1579710749.2598505;-44.90702819824219;0
1579710749.2598617;-40.604217529296875;0
1579710749.2598724;-35.6641845703125;0
1579710749.2598834;-31.478118896484375;0
1579710749.2598944;-29.771392822265625;0
1579710749.3910313;-31.92486572265625;0
1579710749.3992727;-38.44390869140625;0
1579710749.399295;-48.6126708984375;0
1579710749.3993113;-60.7718505859375;0
1579710749.3993268;-72.786865234375;0
1579710749.399343;-82.76956176757812;0
1579710749.399368;-89.46549987792969;0
1579710749.3993824;-92.37705993652344;0
1579710749.3993952;-91.6214599609375;0
1579710749.3994098;-87.44041442871094;0
1579710749.3994231;-80.19646453857422;0
1579710749.5779917;-70.16217803955078;0
1579710749.5780141;-57.74584197998047;0
1579710749.5887825;-43.61627960205078;0
1579710749.5888014;-28.87592315673828;0
1579710749.588814;-14.957504272460938;0
1579710749.588827;-3.3001861572265625;0
1579710749.5888386;5.008598327636719;0
1579710749.5888515;9.530960083007812;0
1579710749.588863;10.542198181152344;0
1579710749.5888736;9.036048889160156;0
1579710749.588884;6.3690032958984375;0
1579710749.5888958;0.3201785385608673;0
1579710749.588907;0.31761711835861206;0
1579710749.588918;0.32145926356315613;0
1579710749.588929;0.32786282896995544;0
1579710749.5889397;0.32786282896995544;0
1579710749.5889509;0.32786282896995544;0
1579710749.7775443;3.8835372924804688;0
1579710749.777555;2.602569580078125;0
1579710749.777562;2.9848480224609375;0
1579710749.7775686;5.034965515136719;0
1579710749.7775743;8.347831726074219;0
1579710749.777581;12.241828918457031;0
1579710749.778536;15.952613830566406;0
1579710749.7785518;18.837020874023438;0
1579710749.7785616;20.38947296142578;0
1579710749.7785692;20.454017639160156;0
1579710749.7785761;19.311614990234375;0
1579710749.994345;17.463478088378906;0
1579710750.0009422;15.696487426757812;0
1579710750.0009608;14.551872253417969;0
1579710750.0009763;14.036880493164062;0
1579710750.0009882;13.532600402832031;0
1579710750.0009964;11.982643127441406;0
1579710750.0010035;8.507156372070312;0
1579710750.00101;2.8734130859375;0
1579710750.0010166;-4.345970153808594;0
1579710750.0010235;-12.124244689941406;0
1579710750.0010424;-19.379486083984375;0
1579710750.112388;-25.434497833251953;0
1579710750.118634;-30.09246063232422;0
1579710750.118652;-33.436038970947266;0
1579710750.1186655;-35.726402282714844;0
1579710750.1186771;-37.2717399597168;0
1579710750.1186888;-38.43950653076172;0
1579710750.1186998;-39.639076232910156;0
1579710750.1187108;-41.230411529541016;0
1579710750.1187212;-43.277156829833984;0
1579710750.118732;-45.35166931152344;0
1579710750.1187432;-46.73107147216797;0
1579710750.231134;30.649999618530273;0
1579710750.2360153;30.649999618530273;0
1579710750.2360435;30.649999618530273;0
1579710750.2360575;30.649999618530273;0
1579710750.2360702;30.59000015258789;0
1579710750.2360823;30.59000015258789;0
1579710750.2360945;30.59000015258789;0
1579710750.2361078;30.59000015258789;0
1579710750.2513576;-46.62912368774414;0
1579710750.2744946;-44.72536087036133;0
1579710750.274515;-41.26536560058594;0
1579710750.2745392;-36.7622184753418;0
1579710750.2745526;-31.679954528808594;0
1579710750.2745652;-26.05603790283203;0
1579710750.2745774;-19.60043716430664;0
1579710750.2745895;-11.996879577636719;0
1579710750.2746015;-3.4027099609375;0
1579710750.2746143;5.415184020996094;0
1579710750.2746265;13.184452056884766;0
1579710750.4514549;18.627296447753906;0
1579710750.4598393;21.04511260986328;0
1579710750.459857;20.563392639160156;0
1579710750.4598696;18.24169158935547;0
1579710750.459882;15.473968505859375;0
1579710750.4604008;13.424285888671875;0
1579710750.4604192;12.537704467773438;0
1579710750.4604325;12.336647033691406;0
1579710750.4604454;11.877395629882812;0
1579710750.4604583;10.296722412109375;0
1579710750.4604716;7.428443908691406;0
1579710750.6045182;3.8367385864257812;0
1579710750.6124856;0.6653594970703125;0
1579710750.6125045;-1.2967376708984375;0
1579710750.612517;-2.0089340209960938;0
1579710750.612529;-2.2912979125976562;0
1579710750.6125436;-3.3632888793945312;0
1579710750.6125548;-5.8210601806640625;0
1579710750.6125648;-9.193183898925781;0
1579710750.6125755;-11.973045349121094;0
1579710750.6125863;-12.564987182617188;0
1579710750.612597;-10.068649291992188;0
1579710750.7845898;-5.2166290283203125;0
1579710750.7905252;-0.1096343994140625;0
1579710750.7905374;2.9595718383789062;0
1579710750.7905452;2.4069290161132812;0
1579710750.790552;-1.30877685546875;0
1579710750.7905579;-6.32647705078125;0
1579710750.790565;-10.472694396972656;0
1579710750.7905712;-12.487724304199219;0
1579710750.7905774;-12.285102844238281;0
1579710750.7905838;-11.094215393066406;0
1579710750.7905898;-10.451065063476562;0
1579710750.9640484;-11.0201416015625;0
1579710750.9681537;-12.9141845703125;0
1579710750.968169;-14.741828918457031;0
1579710750.9681773;-14.793601989746094;0
1579710750.9681857;-11.951583862304688;0
1579710750.9681957;-6.103019714355469;0
1579710750.9682047;2.39569091796875;0
1579710750.9682152;12.393478393554688;0
1579710750.968225;22.641197204589844;0
1579710750.9682312;32.441917419433594;0
1579710750.9682367;40.614295959472656;0
1579710751.091374;0.33298569917678833;0
1579710751.0978816;0.33298569917678833;0
1579710751.097903;0.3355471193790436;0
1579710751.09792;0.3355471193790436;0
1579710751.097935;0.3368278443813324;0
1579710751.0979493;0.33810853958129883;0
1579710751.112237;47.58927917480469;0
1579710751.1174781;54.91667938232422;0
1579710751.1175013;64.88490295410156;0
1579710751.1175172;79.85047912597656;0
1579710751.117533;101.77394104003906;0
1579710751.1175478;130.0782012939453;0
1579710751.11817;161.49102783203125;0
1579710751.1181874;191.0057373046875;0
1579710751.1182015;211.61692810058594;0
1579710751.1245842;219.4497528076172;0
1579710751.124608;215.20208740234375;0
1579710751.3109791;204.3619384765625;0
1579710751.3220785;189.0316925048828;0
1579710751.3220966;173.06765747070312;0
1579710751.3221092;158.62234497070312;0
1579710751.3221214;144.27935791015625;0
1579710751.3221333;130.3182373046875;0
1579710751.3221443;106.94741821289062;0
1579710751.322155;65.01968383789062;0
1579710751.3221664;0.2599449157714844;0
1579710751.3221781;-86.83538818359375;0
1579710751.3221889;-188.33248901367188;0
1579710751.4508147;-291.82232666015625;0
1579710751.4576404;-384.5769348144531;0
1579710751.4576583;-455.7268371582031;0
1579710751.4576707;-490.1572265625;0
1579710751.4576836;-479.6947021484375;0
1579710751.457696;-426.0655212402344;0
1579710751.4577072;-343.09686279296875;0
1579710751.4577188;-251.22842407226562;0
1579710751.4577305;-168.22067260742188;0
1579710751.4577417;-102.92888641357422;0
1579710751.4577537;-55.68246841430664;0
1579710751.6369958;-21.923751831054688;0
1579710751.643139;4.924949645996094;0
1579710751.6431508;26.45681381225586;0
1579710751.6431623;42.47715759277344;0
1579710751.6431706;52.71388244628906;0
1579710751.6431773;58.53581619262695;0
1579710751.6431837;63.410606384277344;0
1579710751.6431897;71.36831665039062;0
1579710751.6506712;82.76516723632812;0
1579710751.6506906;96.16786193847656;0
1579710751.650704;108.08041381835938;0
1579710751.8191578;113.09547424316406;0
1579710751.8191721;107.7638931274414;0
1579710751.8191838;92.15716552734375;0
1579710751.819195;69.88630676269531;0
1579710751.8192065;46.650543212890625;0
1579710751.8192167;27.625732421875;0
1579710751.8192275;15.486713409423828;0
1579710751.819242;10.385364532470703;0
1579710751.819253;10.524791717529297;0
1579710751.8192644;12.76287841796875;0
1579710751.8192759;14.718738555908203;0
1579710752.0524101;15.423942565917969;0
1579710752.064842;14.984695434570312;0
1579710752.5963352;0.3368278443813324;0
1579710752.5963566;0.3368278443813324;0
1579710752.5963738;0.34579282999038696;0
1579710752.5963888;0.34579282999038696;0
1579710752.5964034;0.3521963953971863;0
1579710752.6526697;-76.59546661376953;0
1579710752.6634662;-103.0833511352539;0
1579710752.6634886;-120.19514465332031;0
1579710752.6635046;-126.39869689941406;0
1579710752.6635199;-123.95491027832031;0
1579710752.663534;-119.32255554199219;0
1579710752.6635473;-121.16345977783203;0
1579710752.6635609;-137.58889770507812;0
1579710752.6635742;-173.29331970214844;0
1579710752.6635878;-227.58587646484375;0
1579710752.663601;-289.5458984375;0
1579710752.8514597;-342.7019348144531;0
1579710752.8637798;-371.1592712402344;0
1579710752.8637989;-368.0592956542969;0
1579710752.8638124;-338.36724853515625;0
1579710752.8638241;-292.31640625;0
1579710752.8638365;-236.98837280273438;0
1579710752.8638482;-173.1966094970703;0
1579710752.8638594;-98.63932037353516;0
1579710752.8638709;-13.321492195129395;0
1579710752.8638823;75.96826934814453;0
1579710752.8638942;156.43829345703125;0
1579710753.0415576;216.13037109375;0
1579710753.0466092;247.3995819091797;0
1579710753.0466328;249.12855529785156;0
1579710753.046649;227.00181579589844;0
1579710753.0466733;190.75836181640625;0
1579710753.0466878;150.1568145751953;0
1579710753.0467021;112.51788330078125;0
1579710753.0467162;81.4578857421875;0
1579710753.0467305;57.88932800292969;0
1579710753.0467448;41.655792236328125;0
1579710753.0467587;32.43504333496094;0
1579710753.181744;30.28792953491211;0
1579710753.1911685;34.272674560546875;0
1579710753.191186;41.61442565917969;0
1579710753.1911948;47.375396728515625;0
1579710753.1912022;46.26106262207031;0
1579710753.1912084;34.72636032104492;0
1579710753.1912148;12.60407829284668;0
1579710753.1912212;-16.85440444946289;0
1579710753.1912272;-48.35810852050781;0
1579710753.1912336;-76.16224670410156;0
1579710753.1912396;-95.61076354980469;0
1579710753.3810086;-103.92193603515625;0
1579710753.3894308;-100.09584045410156;0
1579710753.3897521;-84.25077056884766;0
1579710753.3897622;-57.52847671508789;0
1579710753.3897698;-22.417312622070312;0
1579710753.3897765;17.039310455322266;0
1579710753.3897824;55.41871643066406;0
1579710753.3897886;87.25746154785156;0
1579710753.3897943;108.52977752685547;0
1579710753.3898003;117.841796875;0
1579710753.389806;116.83773803710938;0
1579710753.5210261;109.61325073242188;0
1579710753.5289896;101.23397827148438;0
1579710753.5290105;95.69718933105469;0
1579710753.5290248;94.59402465820312;0
1579710753.5290368;96.74446105957031;0
1579710753.529048;99.2224349975586;0
1579710753.52906;99.10151672363281;0
1579710753.5290706;94.8428955078125;0
1579710753.529082;86.85342407226562;0
1579710753.5290937;77.17552947998047;0
1579710753.5291052;68.37142944335938;0
1579710753.707052;62.364227294921875;0
1579710753.7070656;60.015316009521484;0
1579710753.707076;61.196693420410156;0
1579710753.7070866;65.27369689941406;0
1579710753.7070973;71.60931396484375;0
1579710753.7071078;79.52635955810547;0
1579710753.7071185;87.9852066040039;0
1579710753.707129;95.31297302246094;0
1579710753.707139;99.0700912475586;0
1579710753.7071488;96.29470825195312;0
1579710753.7071586;84.15853118896484;0
1579710753.879403;61.0291633605957;0
1579710753.879421;27.510784149169922;0
1579710753.8794348;-13.015727996826172;0
1579710753.8794475;-54.88363265991211;0
1579710753.87946;-91.54281616210938;0
1579710753.8794734;-117.56990051269531;0
1579710753.8794858;-130.24578857421875;0
1579710753.8794973;-129.85415649414062;0
1579710753.8795075;-118.9446029663086;0
1579710753.879517;-100.90409851074219;0
1579710753.8795283;-78.81153869628906;0
1579710754.101081;-54.956275939941406;0
1579710754.1054885;-30.98590087890625;0
1579710754.1055002;-8.216423034667969;0
1579710754.1055086;12.218719482421875;0
1579710754.1055155;29.33245849609375;0
1579710754.1055222;42.38371276855469;0
1579710754.1055284;50.53520202636719;0
1579710754.105535;52.208091735839844;0
1579710754.105542;45.13482666015625;0
1579710754.1058264;26.892868041992188;0
1579710754.1058347;-3.9007186889648438;0
1579710754.1058774;0.35475781559944153;0
1579710754.105884;0.35603854060173035;0
1579710754.1058898;0.35603854060173035;0
1579710754.105896;0.3598806858062744;0
1579710754.1059017;0.35475781559944153;0
1579710754.1059077;0.35731926560401917;0
1579710754.2817597;-46.33240509033203;0
1579710754.2903662;-97.13982391357422;0
1579710754.2903905;-151.5016326904297;0
1579710754.2904067;-204.08413696289062;0
1579710754.2904313;-250.07745361328125;0
1579710754.2904463;-285.6735534667969;0
1579710754.29046;-307.4623718261719;0
1579710754.2904737;-312.46759033203125;0
1579710754.2904882;-298.6112060546875;0
1579710754.2905025;-265.7108154296875;0
1579710754.2905169;-216.7174072265625;0
1579710754.2905312;30.610000610351562;0
1579710754.2905564;30.610000610351562;0
1579710754.2905705;30.610000610351562;0
1579710754.290584;30.610000610351562;0
1579710754.290598;30.610000610351562;0
1579710754.290611;30.610000610351562;0
1579710754.2906241;30.610000610351562;0
1579710754.290638;30.610000610351562;0
1579710754.381095;-157.59002685546875;0
1579710754.3872635;-96.080322265625;0
1579710754.3872788;-39.74958801269531;0
1579710754.3872864;5.73095703125;0
1579710754.3872936;38.65911865234375;0
1579710754.3873005;61.36467742919922;0
1579710754.3873062;79.0113525390625;0
1579710754.3873127;97.5299072265625;0
1579710754.3873193;121.00245666503906;0
1579710754.387326;150.8467254638672;0
1579710754.3873317;183.41082763671875;0
1579710754.5913792;210.52117919921875;0
1579710754.6008797;222.63320922851562;0
1579710754.600891;214.92654418945312;0
1579710754.6008983;189.4253387451172;0
1579710754.600905;153.249267578125;0
1579710754.6009111;115.00951385498047;0
1579710754.6009173;80.92851257324219;0
1579710754.6009312;51.41444396972656;0
1579710754.600937;24.363784790039062;0
1579710754.6009438;-3.0284042358398438;0
1579710754.60095;-33.55491638183594;0
1579710754.7308826;-67.75668334960938;0
1579710754.7364752;-103.96549224853516;0
1579710754.7369685;-139.44381713867188;0
1579710754.7369833;-167.65924072265625;0
1579710754.7369957;-184.59983825683594;0
1579710754.7370074;-188.54380798339844;0
1579710754.7370188;-180.1780242919922;0
1579710754.7370312;-156.76138305664062;0
1579710754.7370427;-122.26026916503906;0
1579710754.7370534;-85.44883728027344;0
1579710754.7370644;-56.10224151611328;0
1579710754.9109266;-39.624595642089844;0
1579710754.9247372;-34.57355880737305;0
1579710754.9247577;-35.11396026611328;0
1579710754.924772;-34.38235855102539;0
1579710754.9247847;-27.142906188964844;0
1579710754.924798;-11.404190063476562;0
1579710754.9248137;10.753650665283203;0
1579710754.9248261;35.79546356201172;0
1579710754.924839;59.639251708984375;0
1579710754.9248512;78.28182983398438;0
1579710754.9248633;88.81065368652344;0
1579710755.1028023;89.05713653564453;0
1579710755.1122236;78.5165786743164;0
1579710755.1122372;59.81133270263672;0
1579710755.1122456;38.5560188293457;0
1579710755.1122522;20.582538604736328;0
1579710755.1122591;10.532554626464844;0
1579710755.1122663;9.706661224365234;0
1579710755.1122727;15.624509811401367;0
1579710755.1122785;23.472824096679688;0
1579710755.1122844;28.266220092773438;0
1579710755.1122904;27.631980895996094;0
1579710755.241069;22.867076873779297;0
1579710755.2467523;17.867006301879883;0
1579710755.2467694;16.156177520751953;0
1579710755.2467813;20.695194244384766;0
1579710755.2467933;32.098846435546875;0
1579710755.2468052;48.40888977050781;0
1579710755.246816;66.17723846435547;0
1579710755.2468266;81.70508575439453;0
1579710755.2468371;92.38713836669922;0
1579710755.2468483;97.06504821777344;0
1579710755.2468596;95.66922760009766;0
1579710755.431392;88.46556854248047;0
1579710755.4401975;76.5068588256836;0
1579710755.4402208;61.47212600708008;0
1579710755.4402378;45.649654388427734;0
1579710755.4402523;31.653066635131836;0
1579710755.4402678;21.460369110107422;0
1579710755.4402823;16.00408935546875;0
1579710755.4402962;14.895695686340332;0
1579710755.4403205;16.748685836791992;0
1579710755.4409082;19.670475006103516;0
1579710755.440925;21.98838996887207;0
1579710755.5944896;0.35475781559944153;0
1579710755.6003275;0.35475781559944153;0
1579710755.6003516;0.35475781559944153;0
1579710755.6003678;0.3585999608039856;0
1579710755.6003833;0.3598806858062744;0
1579710755.6003976;0.3598806858062744;0
1579710755.600413;22.597436904907227;0
1579710755.6004276;20.88991355895996;0
1579710755.600444;16.78182601928711;0
1579710755.600459;10.231001853942871;0
1579710755.600473;1.2120399475097656;0
1579710755.6004865;-10.1737060546875;0
1579710755.6004999;-23.517559051513672;0
1579710755.6005135;-37.861080169677734;0
1579710755.6005273;-51.609779357910156;0
1579710755.6005416;-62.72727966308594;0
1579710755.6005597;-69.10845184326172;0
1579710755.7628334;-69.0980453491211;0
1579710755.7628436;-62.18912887573242;0
1579710755.7628512;-49.41210174560547;0
1579710755.7753913;-33.34412384033203;0
1579710755.7754142;-17.615835189819336;0
1579710755.7754304;-5.879007339477539;0
1579710755.775446;-0.6921207904815674;0
1579710755.775461;-2.566196918487549;0
1579710755.7754738;-9.73431396484375;0
1579710755.7754877;-18.618452072143555;0
1579710755.781222;-25.16183090209961;0
1579710755.9650483;-26.359113693237305;0
1579710755.9650633;-21.32933807373047;0
1579710755.965074;-11.720742225646973;0
1579710755.9650855;-0.8775415420532227;0
1579710755.9650967;7.426204681396484;0
1579710755.9651072;10.570826530456543;0
1579710755.9651182;7.990201950073242;0
1579710755.9651287;1.3078150749206543;0
1579710755.9651392;-6.365123271942139;0
1579710755.9651504;-11.490272521972656;0
1579710755.965165;-11.263511657714844;0
1579710756.1612709;-4.506162643432617;0
1579710756.1686013;8.140792846679688;0
1579710756.1686192;24.369457244873047;0
1579710756.168632;40.8491325378418;0
1579710756.1686435;54.10919189453125;0
1579710756.1686547;61.55701446533203;0
1579710756.168666;62.12929153442383;0
1579710756.1686764;56.58944320678711;0
1579710756.1686895;47.17896270751953;0
1579710756.1687002;36.705814361572266;0
1579710756.1691792;27.49480438232422;0
1579710756.222559;30.59000015258789;0
1579710756.232952;30.59000015258789;0
1579710756.2329702;30.59000015258789;0
1579710756.2329829;30.59000015258789;0
1579710756.2329948;30.59000015258789;0
1579710756.233006;30.59000015258789;0
1579710756.2330172;30.59000015258789;0
1579710756.2330284;30.59000015258789;0
1579710756.3053331;20.514429092407227;0
1579710756.316435;15.313737869262695;0
1579710756.316447;10.50245475769043;0
1579710756.3164551;4.842728614807129;0
1579710756.3164628;-1.9613971710205078;0
1579710756.3164694;-9.01439094543457;0
1579710756.316476;-14.625507354736328;0
1579710756.316483;-17.308032989501953;0
1579710756.31649;-16.50423240661621;0
1579710756.3164961;-13.0311279296875;0
1579710756.3165047;-8.703453063964844;0
1579710756.4709282;-5.551322937011719;0
1579710756.47645;-5.025043487548828;0
1579710756.4764628;-7.494935989379883;0
1579710756.476471;-12.485076904296875;0
1579710756.4764779;-18.91059112548828;0
1579710756.4764843;-25.618038177490234;0
1579710756.4764907;-31.519729614257812;0
1579710756.4764965;-35.75990676879883;0
1579710756.4765031;-37.63507080078125;0
1579710756.476509;-36.805809020996094;0
1579710756.476515;-33.53157043457031;0
1579710756.6528401;-28.74483299255371;0
1579710756.6603796;-23.93537712097168;0
1579710756.6604028;-20.580615997314453;0
1579710756.660419;-19.716829299926758;0
1579710756.6604338;-21.53424072265625;0
1579710756.6604486;-25.340112686157227;0
1579710756.6604626;-29.88946533203125;0
1579710756.6604762;-33.80809020996094;0
1579710756.6604898;-35.97493362426758;0
1579710756.660504;-35.64800262451172;0
1579710756.6605184;-32.65887451171875;0
1579710756.7916064;-27.293197631835938;0
1579710756.8008354;-20.415340423583984;0
1579710756.8008544;-13.375894546508789;0
1579710756.8008692;-7.660676956176758;0
1579710756.8008773;-4.415981292724609;0
1579710756.800884;-3.9290218353271484;0
1579710756.8008904;-5.575326919555664;0
1579710756.8008974;-7.965179443359375;0
1579710756.800904;-9.690292358398438;0
1579710756.8013775;-9.864444732666016;0
1579710756.801392;-8.469018936157227;0
1579710756.9716802;-6.2921295166015625;0
1579710756.97816;-4.302242279052734;0
1579710756.9781756;-3.2283802032470703;0
1579710756.978185;-3.0946216583251953;0
1579710756.9781973;-3.308224678039551;0
1579710756.9782043;-2.800018787384033;0
1579710756.9782114;-0.6165218353271484;0
1579710756.9782178;3.7528724670410156;0
1579710756.978224;10.028218269348145;0
1579710756.9782305;17.1109561920166;0
1579710756.978237;23.471832275390625;0
1579710757.0821295;0.36244210600852966;0
1579710757.0910115;0.3637228310108185;0
1579710757.091034;0.36244210600852966;0
1579710757.0910501;0.3637228310108185;0
1579710757.091065;0.36116141080856323;0
1579710757.0910788;0.36244210600852966;0
1579710757.1545427;27.60424041748047;0
1579710757.1660397;28.729286193847656;0
1579710757.1660566;27.183338165283203;0
1579710757.1660697;24.34994888305664;0
1579710757.166081;22.12397003173828;0
1579710757.1660914;22.1280574798584;0
1579710757.1661024;24.964763641357422;0
1579710757.1661136;29.901294708251953;0
1579710757.1661243;35.12993240356445;0
1579710757.1661344;38.32280349731445;0
1579710757.1661453;37.31745910644531;0
1579710757.3109498;30.844940185546875;0
1579710757.3178697;18.9948673248291;0
1579710757.3179064;3.265207290649414;0
1579710757.3179216;-13.547859191894531;0
1579710757.3179338;-28.019729614257812;0
1579710757.3179464;-37.00474548339844;0
1579710757.3179588;-38.546607971191406;0
1579710757.3179703;-32.56108474731445;0
1579710757.317981;-20.863807678222656;0
1579710757.317992;-6.673086166381836;0
1579710757.3180032;6.46424674987793;0
1579710757.491072;15.556503295898438;0
1579710757.497344;18.9636287689209;0
1579710757.4973612;16.638647079467773;0
1579710757.4973774;9.839408874511719;0
1579710757.497386;0.6786689758300781;0
1579710757.4973927;-8.502540588378906;0
1579710757.4973996;-15.533527374267578;0
1579710757.497406;-18.888212203979492;0
1579710757.4974124;-17.84575080871582;0
1579710757.497419;-12.651657104492188;0
1579710758.2395282;30.610000610351562;0
1579710758.2395363;30.610000610351562;0
1579710758.353079;-5.731760025024414;0
1579710758.3628416;-5.380725860595703;0
1579710758.362854;-4.723798751831055;0
1579710758.3628626;-4.2470855712890625;0
1579710758.3628695;-4.19965934753418;0
1579710758.3628757;-4.404991149902344;0
1579710758.3628814;-4.37548828125;0
1579710758.3628876;-3.6068859100341797;0
1579710758.3628936;-1.9718475341796875;0
1579710758.3629;0.3471202850341797;0
1579710758.3629065;2.7914180755615234;0
1579710758.5409694;4.790584564208984;0
1579710758.5470169;5.895936965942383;0
1579710758.5470278;5.935405731201172;0
1579710758.5470352;4.932670593261719;0
1579710758.547042;3.080810546875;0
1579710758.5470488;0.7292022705078125;0
1579710758.547055;-1.8224468231201172;0
1579710758.547061;-4.27777099609375;0
1579710758.5470743;-6.415712356567383;0
1579710758.5470808;-8.045352935791016;0
1579710758.5470862;-9.011699676513672;0
1579710758.5828135;0.3585999608039856;0
1579710758.5910115;0.36116141080856323;0
1579710758.591031;0.3585999608039856;0
1579710758.5910442;0.3598806858062744;0
1579710758.591056;0.3585999608039856;0
1579710758.5910754;0.35731926560401917;0
1579710758.701186;-9.137897491455078;0
1579710758.7106621;-8.360631942749023;0
1579710758.7106736;-6.760799407958984;0
1579710758.7106814;-4.615348815917969;0
1579710758.7106884;-2.3641624450683594;0
1579710758.7107034;-0.5910186767578125;0
1579710758.7107108;0.2469482421875;0
1579710758.7107174;-0.08449935913085938;0
1579710758.710724;-1.39666748046875;0
1579710758.7107303;-3.1955642700195312;0
1579710758.710736;-4.8203277587890625;0
1579710758.8424234;-5.652286529541016;0
1579710758.8503015;-5.364208221435547;0
1579710758.8503268;-3.9968948364257812;0
1579710758.8503501;-1.9560279846191406;0
1579710758.850383;0.177978515625;0
1579710758.850403;1.8731536865234375;0
1579710758.8504305;2.8419647216796875;0
1579710758.8504567;3.0496788024902344;0
1579710758.85048;2.7623062133789062;0
1579710758.850508;2.3463897705078125;0
1579710758.8511424;2.146289825439453;0
1579710759.0309296;2.2807159423828125;0
1579710759.0387037;2.714282989501953;0
1579710759.0387223;3.244415283203125;0
1579710759.038736;3.6114463806152344;0
1579710759.0387485;3.6442832946777344;0
1579710759.0387595;3.2387161254882812;0
1579710759.0387707;2.4270858764648438;0
1579710759.0387816;1.3059539794921875;0
1579710759.0387986;0.0940399169921875;0
1579710759.038811;-0.9662322998046875;0
1579710759.038822;-1.6085243225097656;0
1579710759.2338762;-1.6853370666503906;0
1579710759.2412243;-1.3749885559082031;0
1579710759.241236;-1.2101325988769531;0
1579710759.241244;-1.8246383666992188;0
1579710759.2412515;-3.6754074096679688;0
1579710759.2412589;-6.5836029052734375;0
1579710759.2412648;-9.72287368774414;0
1579710759.2412713;-11.874382019042969;0
1579710759.2412772;-12.031791687011719;0
1579710759.2412834;-9.959030151367188;0
1579710759.2412894;-6.447147369384766;0
1579710759.3714347;-2.922351837158203;0
1579710759.3829935;-0.7855377197265625;0
1579710759.3830073;-0.7548904418945312;0
1579710759.383017;-2.586627960205078;0
1579710759.3830297;-5.2475128173828125;0
1579710759.383037;-7.464000701904297;0
1579710759.3830433;-8.267654418945312;0
1579710759.3830495;-7.223762512207031;0
1579710759.3830554;-4.578479766845703;0
1579710759.3830616;-0.8883171081542969;0
1579710759.3830686;3.071075439453125;0
1579710759.5517583;6.451557159423828;0
1579710759.5589173;8.401912689208984;0
1579710759.5589292;8.237911224365234;0
1579710759.5589375;5.806880950927734;0
1579710759.5589447;1.5928993225097656;0
1579710759.558958;-3.0663375854492188;0
1579710759.5589652;-6.439735412597656;0
1579710759.5589712;-7.036800384521484;0
1579710759.5589776;-4.257778167724609;0
1579710759.5589836;1.1131401062011719;0
1579710759.55899;7.232898712158203;0
1579710759.711893;11.900035858154297;0
1579710759.7184129;13.541549682617188;0
1579710759.7184324;11.695724487304688;0
1579710759.7184463;7.129539489746094;0
1579710759.7184587;1.3304710388183594;0
1579710759.718472;-4.177070617675781;0
1579710759.7189837;-8.264293670654297;0
1579710759.7189977;-10.441230773925781;0
1579710759.719005;-10.626670837402344;0
1579710759.7190115;-8.982681274414062;0
1579710759.7190254;-5.723548889160156;0
1579710759.9005382;-1.219757080078125;0
1579710759.9005575;4.026634216308594;0
1579710759.9005728;9.322257995605469;0
1579710759.9005861;13.9532470703125;0
1579710759.900601;17.42096710205078;0
1579710759.9006143;19.691326141357422;0
1579710759.9006276;21.46103286743164;0
1579710759.9006417;23.835678100585938;0
1579710759.9006553;28.057567596435547;0
1579710759.9006698;34.89497756958008;0
1579710759.900683;44.19609451293945;0
1579710760.0713067;54.71517562866211;0
1579710760.071316;64.3552017211914;0
1579710760.0713298;70.88557434082031;0
1579710760.0713363;72.62876892089844;0
1579710760.071342;69.06148529052734;0
1579710760.0713482;60.67500686645508;0
1579710760.0713544;48.56180191040039;0
1579710760.0713603;33.97959518432617;0
1579710760.0713665;18.12774658203125;0
1579710760.0713727;2.366413116455078;0
1579710760.0713797;-11.399574279785156;0
1579710760.0823066;0.3585999608039856;0
1579710760.0823236;0.35731926560401917;0
1579710760.0823443;0.35731926560401917;0
1579710760.0823739;0.3585999608039856;0
1579710760.082393;0.3598806858062744;0
1579710760.082407;0.3585999608039856;0
1579710760.2630343;30.610000610351562;0
1579710760.2687826;30.610000610351562;0
1579710760.2688036;30.610000610351562;0
1579710760.2688198;30.610000610351562;0
1579710760.2688346;30.610000610351562;0
1579710760.2688484;30.610000610351562;0
1579710760.2688625;30.610000610351562;0
1579710760.268876;30.610000610351562;0
1579710760.2688909;-20.283557891845703;0
1579710760.2689047;-20.85881805419922;0
1579710760.2689183;-10.144805908203125;0
1579710760.268932;12.832347869873047;0
1579710760.268946;46.01982116699219;0
1579710760.2689598;84.3783187866211;0
1579710760.2689745;120.90633392333984;0
1579710760.2689884;148.2610321044922;0
1579710760.269002;160.7519073486328;0
1579710760.2690158;155.63900756835938;0
1579710760.2696028;133.32420349121094;0
1579710760.4810326;96.75228118896484;0
1579710760.4871686;50.077110290527344;0
1579710760.4871929;-1.869119644165039;0
1579710760.4872103;-53.85269546508789;0
1579710760.4872272;-100.625;0
1579710760.487244;-138.00967407226562;0
1579710760.4872594;-163.32965087890625;0
1579710760.4872744;-175.6727294921875;0
1579710760.4872887;-175.62521362304688;0
1579710760.4873023;-164.74900817871094;0
1579710760.4873164;-145.92214965820312;0
1579710760.561404;-122.25090026855469;0
1579710760.5682752;-96.4184341430664;0
1579710760.568293;-70.4997329711914;0
1579710760.5683067;-46.806243896484375;0
1579710760.568319;-27.439048767089844;0
1579710760.574253;-13.630084991455078;0
1579710760.5742667;-5.0792388916015625;0
1579710760.5742753;0.08839797973632812;0
1579710760.5742822;2.8748884201049805;0
1579710760.5742884;3.305248260498047;0
1579710760.574295;0.7058734893798828;0
1579710760.7826283;-5.976835250854492;0
1579710760.788618;-18.369348526000977;0
1579710760.7886324;-37.299842834472656;0
1579710760.788645;-61.89263153076172;0
1579710760.7886522;-89.38867950439453;0
1579710760.7886586;-115.89447021484375;0
1579710760.7886646;-139.71054077148438;0
1579710760.7886708;-160.6517791748047;0
1579710760.7886772;-178.3692169189453;0
1579710760.7886834;-185.7110137939453;0
1579710760.7886894;-175.23744201660156;0
1579710760.901136;-143.9098663330078;0
1579710760.9062982;-97.45323944091797;0
1579710760.9063187;-51.983497619628906;0
1579710760.9063323;-15.180643081665039;0
1579710760.9063442;9.579214096069336;0
1579710760.9063556;22.775442123413086;0
1579710760.9063683;27.525659561157227;0
1579710760.9063823;28.801227569580078;0
1579710760.906394;30.593547821044922;0
1579710760.9064057;34.420860290527344;0
1579710760.9064171;39.25482940673828;0
1579710761.101088;43.54655456542969;0
1579710761.1063795;48.023277282714844;0
1579710761.1064003;54.69509506225586;0
1579710761.1064377;67.00340270996094;0
1579710761.1064599;87.94953918457031;0
1579710761.106472;117.93846893310547;0
1579710761.1069694;152.59329223632812;0
1579710761.1069841;184.2443389892578;0
1579710761.1069963;205.00146484375;0
1579710761.1070075;210.1494140625;0
1579710761.1070185;199.75186157226562;0
1579710761.2812526;176.24009704589844;0
1579710761.2911773;143.2457733154297;0
1579710761.2911963;104.42403411865234;0
1579710761.2912092;63.194854736328125;0
1579710761.2912207;22.254886627197266;0
1579710761.2912323;-15.72186279296875;0
1579710761.2912438;-47.89689636230469;0
1579710761.2912552;-71.16573333740234;0
1579710761.291267;-82.93812561035156;0
1579710761.291278;-83.10778045654297;0
1579710761.291289;-73.93052673339844;0
1579710761.4474409;-59.52980041503906;0
1579710761.455064;-44.3497314453125;0
1579710761.4550772;-32.32874298095703;0
1579710761.455085;-25.661300659179688;0
1579710761.4550917;-24.46596908569336;0
1579710761.455098;-27.019264221191406;0
1579710761.4551036;-30.653884887695312;0
1579710761.4551098;-33.262977600097656;0
1579710761.4551187;-33.73174285888672;0
1579710761.45513;-31.91754913330078;0
1579710761.4551396;-28.253036499023438;0
1579710761.5933347;0.3585999608039856;0
1579710761.6026065;0.35731926560401917;0
1579710761.6026301;0.3585999608039856;0
1579710761.6026464;0.35603854060173035;0
1579710761.6026611;0.3585999608039856;0
1579710761.602675;0.35603854060173035;0
1579710761.63168;-23.676437377929688;0
1579710761.6362963;-19.237770080566406;0
1579710761.6363084;-15.896675109863281;0
1579710761.636318;-14.238304138183594;0
1579710761.6363244;-14.232475280761719;0
1579710761.6363306;-15.447158813476562;0
1579710761.6363378;-17.09857940673828;0
1579710761.6363435;-18.449111938476562;0
1579710761.6363494;-19.018531799316406;0
1579710761.6363554;-19.007957458496094;0
1579710761.6363611;-19.00859832763672;0
1579710761.7710993;-19.659271240234375;0
1579710761.7761095;-21.179046630859375;0
1579710761.7761335;-23.139404296875;0
1579710761.7761526;-24.690025329589844;0
1579710761.7761693;-25.040733337402344;0
1579710761.7761855;-24.036788940429688;0
1579710761.776202;-22.399017333984375;0
1579710761.776947;-21.61382293701172;0
1579710761.776963;-23.21875;0
1579710761.7769783;-27.90093994140625;0
1579710761.7769918;-34.6856689453125;0
1579710761.9646075;-40.80504608154297;0
1579710761.970973;-42.443687438964844;0
1579710761.9709852;-35.85240936279297;0
1579710761.970993;-18.675094604492188;0
1579710761.971001;9.375953674316406;0
1579710761.971008;46.735450744628906;0
1579710761.9710145;90.85213470458984;0
1579710761.9710207;138.88153076171875;0
1579710761.9710267;188.00823974609375;0
1579710761.9710324;235.24395751953125;0
1579710761.9710395;276.9041748046875;0
1579710762.1512537;308.8205871582031;0
1579710762.151267;327.091064453125;0
1579710762.1512792;329.35992431640625;0
1579710762.1512897;315.8596496582031;0
1579710762.1512992;289.462158203125;0
1579710762.1513095;254.62289428710938;0
1579710762.1513197;215.6653594970703;0
1579710762.1513312;175.7034454345703;0
1579710762.1513453;136.06297302246094;0
1579710762.1513593;96.89291381835938;0
1579710762.151373;58.036781311035156;0
1579710762.2218215;30.610000610351562;0
1579710762.2344556;30.610000610351562;0
1579710762.2344742;30.610000610351562;0
1579710762.2344873;30.610000610351562;0
1579710762.2345;30.610000610351562;0
1579710762.2345116;30.610000610351562;0
1579710762.2345226;30.610000610351562;0
1579710762.2345338;30.610000610351562;0
1579710762.3012455;19.741125106811523;0
1579710762.3077857;-17.143095016479492;0
1579710762.3077972;-51.55140686035156;0
1579710762.3078048;-82.53565216064453;0
1579710762.3078117;-109.53002166748047;0
1579710762.3078187;-132.1605224609375;0
1579710762.3078246;-150.07041931152344;0
1579710762.3078403;-162.75546264648438;0
1579710762.3078516;-169.81114196777344;0
1579710762.307858;-171.1676025390625;0
1579710762.3078635;-167.2586669921875;0
1579710762.5526457;-159.24862670898438;0
1579710762.558402;-148.61854553222656;0
1579710762.5584142;-136.86978149414062;0
1579710762.5584223;-125.24768829345703;0
1579710762.5584288;-114.54209899902344;0
1579710762.558435;-105.05638885498047;0
1579710762.5587363;-96.71450805664062;0
1579710762.5587447;-89.2010498046875;0
1579710762.5587513;-81.9834976196289;0
1579710762.558757;-74.548583984375;0
1579710762.5587633;-66.31224060058594;0
1579710762.6308393;-56.7269287109375;0
1579710762.639064;-45.500152587890625;0
1579710762.6390755;-32.6500244140625;0
1579710762.6390839;-18.673736572265625;0
1579710762.639091;-4.30657958984375;0
1579710762.6390975;9.7186279296875;0
1579710762.6391037;23.033599853515625;0
1579710762.6391098;35.84666442871094;0
1579710762.6391158;48.65733337402344;0
1579710762.6391213;61.73432922363281;0
1579710762.6391277;74.39572143554688;0
1579710762.8554811;84.88327026367188;0
1579710762.867792;91.21250915527344;0
1579710762.8678212;92.0335693359375;0
1579710762.867836;87.70233154296875;0
1579710762.8678594;80.34097290039062;0
1579710762.8678727;72.56913757324219;0
1579710762.8678849;66.13505554199219;0
1579710762.8678973;61.01164245605469;0
1579710762.86791;55.38337707519531;0
1579710762.8679216;47.24610900878906;0
1579710762.8679347;35.74293518066406;0
1579710762.9626257;21.84661865234375;0
1579710762.9688199;7.8001861572265625;0
1579710762.9688706;-4.320648193359375;0
1579710762.9688888;-13.867935180664062;0
1579710762.9689043;-21.688766479492188;0
1579710762.9689186;-29.094619750976562;0
1579710762.9689322;-36.77198791503906;0
1579710762.9689462;-44.39039611816406;0
1579710762.96896;-51.59928894042969;0
1579710762.9689865;-59.30400085449219;0
1579710762.9690008;-70.09783935546875;0
1579710763.0832977;0.35731926560401917;0
1579710763.0924177;0.3585999608039856;0
1579710763.092441;0.35603854060173035;0
1579710763.0924573;0.35475781559944153;0
1579710763.0924819;0.3534771203994751;0
1579710763.0924962;0.3534771203994751;0
1579710763.1616163;-87.27764892578125;0
1579710763.1729968;-112.56561279296875;0
1579710763.1730125;-144.32981872558594;0
1579710763.1730216;-177.13101196289062;0
1579710763.1730285;-203.40255737304688;0
1579710763.1730347;-216.39865112304688;0
1579710763.173041;-212.74459838867188;0
1579710763.1733353;-193.4451904296875;0
1579710763.1733506;-162.8050537109375;0
1579710763.1733572;-126.3564453125;0
1579710763.1733637;-89.10467529296875;0
1579710763.3410394;-54.372894287109375;0
1579710763.3490832;-24.1845703125;0
1579710763.3491082;0.153411865234375;0
1579710763.3491244;17.855316162109375;0
1579710763.3491356;28.591796875;0
1579710763.349147;32.724945068359375;0
1579710763.3491583;31.704803466796875;0
1579710763.34917;27.631988525390625;0
1579710763.349181;22.834869384765625;0
1579710763.349192;19.252670288085938;0
1579710763.3492029;17.987442016601562;0
1579710763.5016413;19.178878784179688;0
1579710763.5102558;22.269485473632812;0
1579710763.510279;26.198699951171875;0
1579710763.5102966;29.579498291015625;0
1579710763.5103128;30.999359130859375;0
1579710763.5103285;29.037277221679688;0
1579710763.510344;22.764938354492188;0
1579710763.5103595;12.076614379882812;0
1579710763.5103736;-2.1424560546875;0
1579710763.510388;-18.264862060546875;0
1579710763.5104012;-34.28163146972656;0
1579710763.68157;-48.343902587890625;0
1579710763.6888685;-59.19732666015625;0
1579710763.68888;-66.2381591796875;0
1579710763.688888;-69.49378967285156;0
1579710763.688895;-69.21966552734375;0
1579710763.6889048;-65.79869079589844;0
1579710763.6889186;-59.875640869140625;0
1579710763.6889277;-52.382965087890625;0
1579710763.6889336;-44.440032958984375;0
1579710763.6889398;-36.92875671386719;0
1579710763.6889462;-30.160552978515625;0
1579710763.841126;-23.808059692382812;0
1579710763.8462863;-17.375152587890625;0
1579710763.8462977;-10.199951171875;0
1579710763.8463063;-1.8603973388671875;0
1579710763.846314;7.277252197265625;0
1579710763.846321;16.247604370117188;0
1579710763.8463275;23.704727172851562;0
1579710763.8463345;28.596023559570312;0
1579710763.8463404;30.603469848632812;0
1579710763.8463516;30.067703247070312;0
1579710763.8463676;27.210525512695312;0
1579710764.026446;22.475738525390625;0
1579710764.0264614;16.419326782226562;0
1579710764.0264854;9.400726318359375;0
1579710764.6098225;0.35603854060173035;0
1579710764.6098309;0.3534771203994751;0
1579710764.6098373;0.3585999608039856;0
1579710764.6098435;0.35731926560401917;0
1579710764.702602;-16.059532165527344;0
1579710764.7088916;-7.714083671569824;0
1579710764.7089133;-1.841653823852539;0
1579710764.708932;3.0322494506835938;0
1579710764.7089467;8.48326301574707;0
1579710764.7089615;15.120105743408203;0
1579710764.7089753;22.609500885009766;0
1579710764.7089906;30.029693603515625;0
1579710764.7090044;36.14170837402344;0
1579710764.7090178;39.66868591308594;0
1579710764.7090313;40.230613708496094;0
1579710764.9212003;38.43819046020508;0
1579710764.932071;35.47731399536133;0
1579710764.9320824;32.6787109375;0
1579710764.9320958;30.849903106689453;0
1579710764.9321141;30.11565399169922;0
1579710764.9321206;30.215354919433594;0
1579710764.9321265;30.748271942138672;0
1579710764.9321322;31.303756713867188;0
1579710764.9321382;31.915061950683594;0
1579710764.932144;32.960365295410156;0
1579710764.9321496;34.90165710449219;0
1579710765.0431244;38.0264892578125;0
1579710765.0488286;42.15998077392578;0
1579710765.0488472;46.691078186035156;0
1579710765.0488594;50.89836883544922;0
1579710765.04887;54.194984436035156;0
1579710765.0488806;56.263938903808594;0
1579710765.048891;57.21604919433594;0
1579710765.0489013;57.42493438720703;0
1579710765.0489113;57.383544921875;0
1579710765.0489216;57.459068298339844;0
1579710765.0489326;57.784278869628906;0
1579710765.221195;58.210601806640625;0
1579710765.2260005;58.379608154296875;0
1579710765.226013;57.87017822265625;0
1579710765.2260206;56.19561767578125;0
1579710765.2260282;52.996665954589844;0
1579710765.226035;48.05803680419922;0
1579710765.2260413;41.512115478515625;0
1579710765.2260473;33.795867919921875;0
1579710765.2260535;25.716278076171875;0
1579710765.2260592;18.291297912597656;0
1579710765.2260659;12.440353393554688;0
1579710765.4018798;8.753738403320312;0
1579710765.4060905;7.254608154296875;0
1579710765.4061186;7.611640930175781;0
1579710765.4067059;9.369834899902344;0
1579710765.4067173;12.258407592773438;0
1579710765.4067316;16.410484313964844;0
1579710765.4067385;22.320640563964844;0
1579710765.4067442;30.400291442871094;0
1579710765.4067507;40.58489990234375;0
1579710765.4067564;51.968040466308594;0
1579710765.4067626;62.88336181640625;0
1579710765.5615253;71.48419189453125;0
1579710765.5676103;76.334716796875;0
1579710765.567657;76.85169982910156;0
1579710765.5676723;73.41722869873047;0
1579710765.567684;66.97416687011719;0
1579710765.5676954;58.392662048339844;0
1579710765.5677087;47.88918685913086;0
1579710765.5677195;35.00215530395508;0
1579710765.5677297;19.053516387939453;0
1579710765.5677428;-0.21409988403320312;0
1579710765.567752;-22.017807006835938;0
1579710765.7509644;-44.539119720458984;0
1579710765.7565713;-65.25970458984375;0
1579710765.756592;-81.83988952636719;0
1579710765.7566044;-92.73477935791016;0
1579710765.7566152;-97.61878967285156;0
1579710765.7566257;-97.14591979980469;0
1579710765.7566366;-92.44598388671875;0
1579710765.7566483;-84.72140502929688;0
1579710765.7566583;-75.02245330810547;0
1579710765.756669;-64.31201171875;0
1579710765.75668;-53.64229202270508;0
1579710765.9042027;-44.37862014770508;0
1579710765.9126575;-37.864505767822266;0
1579710765.912676;-34.979637145996094;0
1579710765.91269;-35.64263153076172;0
1579710765.9127016;-38.52445602416992;0
1579710765.9127142;-41.466514587402344;0
1579710765.9127262;-42.348289489746094;0
1579710765.9127378;-40.041439056396484;0
1579710765.9127488;-34.86891174316406;0
1579710765.91276;-28.49971580505371;0
1579710765.9127717;-22.97456169128418;0
1579710766.0935183;-19.640220642089844;0
1579710766.0935273;-18.549030303955078;0
1579710766.093534;-18.673694610595703;0
1579710766.09354;-18.691017150878906;0
1579710766.093557;-17.788684844970703;0
1579710766.0935643;-16.148921966552734;0
1579710766.0935707;-14.604000091552734;0
1579710766.0935793;-13.967554092407227;0
1579710766.0935888;-14.32168960571289;0
1579710766.093599;-14.96385383605957;0
1579710766.094003;-14.800004959106445;0
1579710766.0940125;0.36116141080856323;0
1579710766.0940194;0.3585999608039856;0
1579710766.0940251;0.36244210600852966;0
1579710766.0940309;0.36244210600852966;0
1579710766.0940409;0.368845671415329;0
1579710766.094052;0.368845671415329;0
1579710766.2613747;30.59000015258789;0
1579710766.266361;30.59000015258789;0
1579710766.266384;30.59000015258789;0
1579710766.2663991;30.59000015258789;0
1579710766.2664132;30.59000015258789;0
1579710766.2664268;30.59000015258789;0
1579710766.2664404;30.59000015258789;0
1579710766.266455;30.59000015258789;0
1579710766.2665572;-13.052156448364258;0
1579710766.2665718;-9.858650207519531;0
1579710766.2665858;-6.146951675415039;0
1579710766.2666;-3.2560176849365234;0
1579710766.2666137;-2.230571746826172;0
1579710766.2666292;-3.3488502502441406;0
1579710766.2666433;-5.9063873291015625;0
1579710766.2666585;-8.671417236328125;0
1579710766.266672;-10.493408203125;0
1579710766.2666857;-10.781881332397461;0
1579710766.266699;-9.80544662475586;0
1579710766.4913137;-8.35084342956543;0
1579710766.5060883;-7.214149475097656;0
1579710766.5061119;-6.760936737060547;0
1579710766.506127;-6.800687789916992;0
1579710766.506142;-6.771596908569336;0
1579710766.5061564;-6.166545867919922;0
1579710766.506171;-4.8527679443359375;0
1579710766.506185;-3.0273561477661133;0
1579710766.5061986;-1.0917367935180664;0
1579710766.5062137;0.7051725387573242;0
1579710766.5062282;2.310588836669922;0
1579710766.6114874;3.751673698425293;0
1579710766.6211252;4.933050155639648;0
1579710766.6211448;5.620959281921387;0
1579710766.6211586;5.55250358581543;0
1579710766.6211724;4.549776554107666;0
1579710766.6211958;2.7375216484069824;0
1579710766.6212106;0.35196542739868164;0
1579710766.6212344;-2.2726030349731445;0
1579710766.6212466;-4.774280548095703;0
1579710766.6212587;-6.711136817932129;0
1579710766.6212714;-7.516899585723877;0
1579710766.791341;-6.628213405609131;0
1579710766.7983687;-3.6857833862304688;0
1579710766.7983923;1.050821304321289;0
1579710766.798973;6.761614799499512;0
1579710766.7989926;12.158909797668457;0
1579710766.799007;16.0184326171875;0
1579710766.7990208;17.678539276123047;0
1579710766.7990339;17.22618865966797;0
1579710766.7990477;15.297168731689453;0
1579710766.7990606;12.609329223632812;0
1579710766.7990735;9.671228408813477;0
1579710766.9742606;6.608943939208984;0
1579710766.9851382;3.4020748138427734;0
1579710766.9851627;0.03373527526855469;0
1579710766.985182;-3.322296142578125;0
1579710766.9851985;-6.356616973876953;0
1579710766.9852123;-8.745290756225586;0
1579710766.9852278;-10.242559432983398;0
1579710766.9852421;-10.79913330078125;0
1579710766.9852564;-10.441682815551758;0
1579710766.9852707;-9.208181381225586;0
1579710766.9852846;-7.14311408996582;0
1579710767.1064236;-4.389194488525391;0
1579710767.1198137;-1.2220344543457031;0
1579710767.1198292;2.0201263427734375;0
1579710767.1198378;4.9516448974609375;0
1579710767.119845;7.3535919189453125;0
1579710767.1198516;9.182880401611328;0
1579710767.1198583;10.521949768066406;0
1579710767.1198645;11.433242797851562;0
1579710767.1198707;11.958812713623047;0
1579710767.1198766;12.058265686035156;0
1579710767.1198826;11.673873901367188;0
1579710767.2911882;10.962669372558594;0
1579710767.2967348;10.139808654785156;0
1579710767.2967536;9.544578552246094;0
1579710767.2967677;9.436763763427734;0
1579710767.2967815;9.858856201171875;0
1579710767.296795;10.55398941040039;0
1579710767.2968082;11.189910888671875;0
1579710767.29682;11.4697265625;0
1579710767.296832;11.231731414794922;0
1579710767.296844;10.609809875488281;0
1579710767.2968564;9.761428833007812;0
1579710767.464632;8.888267517089844;0
1579710767.4715421;8.042274475097656;0
1579710767.4715629;7.186435699462891;0
1579710767.4715781;6.176105499267578;0
1579710767.471592;4.8626556396484375;0
1579710767.4716058;3.2415390014648438;0
1579710767.4716754;1.3644218444824219;0
1579710767.4716907;-0.5246391296386719;0
1579710767.4717038;-2.159046173095703;0
1579710767.4717166;-3.1883201599121094;0
1579710767.4723113;-3.4205589294433594;0
1579710767.5922368;0.3765299618244171;0
1579710767.5971665;0.37396854162216187;0
1579710767.5971825;0.37909141182899475;0
1579710767.5972004;0.37781068682670593;0
1579710767.5972137;0.3803721070289612;0
1579710767.5972228;0.3765299618244171;0
1579710767.6314592;-2.9110794067382812;0
1579710767.6391294;-1.8668327331542969;0
1579710767.6391506;-0.5924110412597656;0
1579710767.6391628;0.6983070373535156;0
1579710767.6391742;1.8570632934570312;0
1579710767.6391852;2.8475608825683594;0
1579710767.639196;3.5112953186035156;0
1579710767.6392066;3.6023941040039062;0
1579710767.6392171;2.949848175048828;0
1579710767.6392274;1.4663848876953125;0
1579710767.6392496;-0.5037689208984375;0
1579710767.8445802;-2.3918075561523438;0
1579710767.8445945;-3.4581375122070312;0
1579710767.8446023;-3.2030105590820312;0
1579710767.8446088;-1.52862548828125;0
1579710767.8446221;1.1126708984375;0
1579710767.8446279;3.96710205078125;0
1579710767.8446343;6.275108337402344;0
1579710767.844641;7.490203857421875;0
1579710767.8446486;7.51318359375;0
1579710767.8446596;6.5462188720703125;0
1579710767.8446708;5.077201843261719;0
1579710767.9512784;3.49530029296875;0
1579710767.9569883;2.0394973754882812;0
1579710767.9570122;0.7021102905273438;0
1579710767.957028;-0.675140380859375;0
1579710767.9570432;-2.2463836669921875;0
1579710767.9570575;-4.0516815185546875;0
1579710767.9570715;-5.864540100097656;0
1579710767.9570854;-7.388038635253906;0
1579710767.9570987;-8.278190612792969;0
1579710767.9571123;-8.371116638183594;0
1579710767.9571264;-7.756378173828125;0
1579710768.1439004;-6.729408264160156;0
1579710768.1439238;-5.688995361328125;0
1579710768.1439407;-4.994529724121094;0
1579710768.143955;-4.821922302246094;0
1579710768.1439688;-5.1609039306640625;0
1579710768.1439822;-5.720771789550781;0
1579710768.143996;-6.147125244140625;0
1579710768.1440105;-6.142425537109375;0
1579710768.150911;-5.6904296875;0
1579710768.1509364;-4.9086761474609375;0
1579710768.1509533;-4.058113098144531;0
1579710768.2113535;30.610000610351562;0
1579710768.2163298;30.610000610351562;0
1579710768.2163486;30.610000610351562;0
1579710768.2163608;30.610000610351562;0
1579710768.216375;30.610000610351562;0
1579710768.216382;30.610000610351562;0
1579710768.2163885;30.610000610351562;0
1579710768.2163942;30.610000610351562;0
1579710768.3022203;-3.4145278930664062;0
1579710768.3022382;-3.1483535766601562;0
1579710768.3022528;-3.3123703002929688;0
1579710768.3022664;-3.7259063720703125;0
1579710768.30228;-4.037269592285156;0
1579710768.302293;-3.7823715209960938;0
1579710768.302307;-2.55706787109375;0
1579710768.3023226;-0.01555633544921875;0
1579710768.3023365;3.8631973266601562;0
1579710768.302351;8.725181579589844;0
1579710768.3023646;13.878768920898438;0
1579710768.550892;18.38129425048828;0
1579710768.5606794;21.434188842773438;0
1579710768.5606914;22.59575653076172;0
1579710768.5606992;21.83361053466797;0
1579710768.5607054;19.31121063232422;0
1579710768.5607119;15.559722900390625;0
1579710768.5607178;11.242683410644531;0
1579710768.5607245;7.052421569824219;0
1579710768.5607305;3.5150070190429688;0
1579710768.5607374;0.8493499755859375;0
1579710768.560743;-0.705352783203125;0
1579710768.6716895;-0.9964370727539062;0
1579710768.678594;-0.0466766357421875;0
1579710768.6786082;1.5269241333007812;0
1579710768.6786158;3.21868896484375;0
1579710768.6786232;4.6519622802734375;0
1579710768.6786397;5.608734130859375;0
1579710768.6786492;5.713935852050781;0
1579710768.678655;4.630683898925781;0
1579710768.6786609;2.8047332763671875;0
1579710768.678667;1.2376174926757812;0
1579710768.6786735;1.087066650390625;0
1579710768.8412771;2.177734375;0
1579710768.8558693;4.204231262207031;0
1579710768.8558831;6.558769226074219;0
1579710768.8558943;8.513458251953125;0
1579710768.8559048;9.012702941894531;0
1579710768.8559165;7.2917022705078125;0
1579710768.8559237;4.145240783691406;0
1579710768.8559296;1.4875411987304688;0
1579710768.8559358;1.323150634765625;0
1579710768.8559425;3.3653335571289062;0
1579710768.856235;7.113624572753906;0
1579710769.0315979;11.946735382080078;0
1579710769.0364347;17.67422866821289;0
1579710769.0364525;23.94976806640625;0
1579710769.0364668;30.646835327148438;0
1579710769.0364795;38.97496032714844;0
1579710769.0364919;50.625186920166016;0
1579710769.036503;67.00819396972656;0
1579710769.0365138;87.17092895507812;0
1579710769.0365255;111.28109741210938;0
1579710769.0365348;140.520751953125;0
1579710769.036546;176.18568420410156;0
1579710769.093274;0.37909141182899475;0
1579710769.102711;0.3752492666244507;0
1579710769.102722;0.3752492666244507;0
1579710769.1027296;0.37396854162216187;0
1579710769.1027365;0.3752492666244507;0
1579710769.102767;0.3714071214199066;0
1579710769.1524422;216.91592407226562;0
1579710769.1589727;251.49717712402344;0
1579710769.1590116;265.83294677734375;0
1579710769.1590261;248.86976623535156;0
1579710769.159039;209.60894775390625;0
1579710769.1590624;155.00216674804688;0
1579710769.1590757;91.654541015625;0
1579710769.1590896;23.02422332763672;0
1579710769.1591048;-44.91161346435547;0
1579710769.1591287;-107.33213806152344;0
1579710769.1591425;-161.3974609375;0
1579710769.3535519;-204.92413330078125;0
1579710769.3631656;-236.42987060546875;0
1579710769.3631868;-255.34352111816406;0
1579710769.3632019;-264.35498046875;0
1579710769.3632164;-266.0612487792969;0
1579710769.363231;-262.5526123046875;0
1579710769.363255;-254.8767852783203;0
1579710769.3632696;-243.93048095703125;0
1579710769.3632836;-230.37147521972656;0
1579710769.3632972;-213.95474243164062;0
1579710769.3633108;-194.45265197753906;0
1579710769.5320184;-172.1942901611328;0
1579710769.542183;-149.7514190673828;0
1579710769.5421956;-129.00439453125;0
1579710769.5422041;-110.7083740234375;0
1579710769.5422113;-94.40422821044922;0
1579710769.5422173;-79.5528564453125;0
1579710769.5422232;-65.70104217529297;0
1579710769.5422297;-51.99892807006836;0
1579710769.5422356;-37.56385803222656;0
1579710769.5422416;-21.85181427001953;0
1579710769.542248;-5.915722370147705;0
1579710770.232091;30.610000610351562;0
1579710770.3615391;51.39381408691406;0
1579710770.3615565;49.25245666503906;0
1579710770.3615716;45.1783447265625;0
1579710770.3615859;39.41423034667969;0
1579710770.3616;32.96052551269531;0
1579710770.3645043;27.167083740234375;0
1579710770.3645241;23.018997192382812;0
1579710770.3645399;20.67657470703125;0
1579710770.364554;19.17059326171875;0
1579710770.3645675;16.81610107421875;0
1579710770.3645813;12.136810302734375;0
1579710770.6021602;4.721282958984375;0
1579710770.6227255;-4.451629638671875;0
1579710770.622749;-13.455276489257812;0
1579710770.622766;-20.344436645507812;0
1579710770.62278;-24.194137573242188;0
1579710770.6227944;-25.385009765625;0
1579710770.6228082;-25.25341796875;0
1579710770.622822;-25.279006958007812;0
1579710770.6228359;-26.230392456054688;0
1579710770.6228492;-27.9173583984375;0
1579710770.6228619;-29.4893798828125;0
1579710770.6229558;0.37268781661987305;0
1579710770.6229699;0.3701263964176178;0
1579710770.622984;0.3714071214199066;0
1579710770.6229982;0.3701263964176178;0
1579710770.623012;0.3701263964176178;0
1579710770.6230254;0.3714071214199066;0
1579710770.7314136;-30.041259765625;0
1579710770.740229;-29.0430908203125;0
1579710770.740243;-26.429397583007812;0
1579710770.7402508;-22.322586059570312;0
1579710770.7402651;-16.70892333984375;0
1579710770.7402725;-9.460769653320312;0
1579710770.7402785;-0.504180908203125;0
1579710770.7402854;9.777130126953125;0
1579710770.7402916;20.394058227539062;0
1579710770.7402976;29.988372802734375;0
1579710770.740303;37.33845520019531;0
1579710770.9136353;41.95530700683594;0
1579710770.9242775;44.26087951660156;0
1579710770.9242897;45.34430694580078;0
1579710770.9242988;46.336570739746094;0
1579710770.9243064;47.675926208496094;0
1579710770.924323;48.745460510253906;0
1579710770.9243367;48.05615997314453;0
1579710770.924344;44.102195739746094;0
1579710770.9243505;36.18446350097656;0
1579710770.924357;24.926864624023438;0
1579710770.9243639;12.181068420410156;0
1579710771.092943;0.25211334228515625;0
1579710771.1047373;-9.155227661132812;0
1579710771.1047502;-15.633941650390625;0
1579710771.1047637;-19.924049377441406;0
1579710771.1047719;-23.219924926757812;0
1579710771.1047783;-25.978286743164062;0
1579710771.1047845;-27.45257568359375;0
1579710771.1047904;-26.003944396972656;0
1579710771.1047964;-20.09239959716797;0
1579710771.1048026;-9.483375549316406;0
1579710771.1048126;4.213905334472656;0
1579710771.2255926;17.901336669921875;0
1579710771.22982;28.21942901611328;0
1579710771.2298398;32.74665069580078;0
1579710771.2298532;31.02149200439453;0
1579710771.2298672;24.518218994140625;0
1579710771.2298768;15.919242858886719;0
1579710771.2298918;8.247276306152344;0
1579710771.2298982;3.8684539794921875;0
1579710771.2299042;4.015083312988281;0
1579710771.2299097;8.526988983154297;0
1579710771.2299156;15.998191833496094;0
1579710771.4039772;24.08199691772461;0
1579710771.4108336;30.194385528564453;0
1579710771.4108677;32.37604522705078;0
1579710771.4108953;29.850902557373047;0
1579710771.4109206;23.486717224121094;0
1579710771.4109452;15.20913314819336;0
1579710771.4109612;7.2379302978515625;0
1579710771.4109719;1.0973320007324219;0
1579710771.4109828;-2.8959407806396484;0
1579710771.4109938;-5.626346588134766;0
1579710771.4110055;-8.506820678710938;0
1579710771.6016288;-12.57417106628418;0
1579710771.6101367;-18.04155158996582;0
1579710771.610161;-23.986034393310547;0
1579710771.610178;-29.02466583251953;0
1579710771.610193;-31.955392837524414;0
1579710771.6102066;-32.561790466308594;0
1579710771.6102204;-31.812538146972656;0
1579710771.6102343;-31.501951217651367;0
1579710771.6102479;-33.361480712890625;0
1579710771.6102622;-38.10877227783203;0
1579710771.610276;-44.96521759033203;0
1579710771.751511;-51.79011917114258;0
1579710771.758289;-56.17732238769531;0
1579710771.7583027;-56.58707046508789;0
1579710771.758312;-53.206886291503906;0
1579710771.7583194;-47.93907165527344;0
1579710771.758326;-43.58968734741211;0
1579710771.758365;-42.568763732910156;0
1579710771.7587278;-45.792728424072266;0
1579710771.7587419;-52.264862060546875;0
1579710771.758753;-59.497562408447266;0
1579710771.758773;-64.61769104003906;0
1579710771.9312453;-65.40148162841797;0
1579710771.9384615;-60.91809844970703;0
1579710771.938518;-51.97690963745117;0
1579710771.9385533;-41.054779052734375;0
1579710771.9385812;-31.88949966430664;0
1579710771.9386096;-28.44236183166504;0
1579710771.938636;-33.35698318481445;0
1579710771.9386666;-46.003639221191406;0
1579710771.938681;-61.561336517333984;0
1579710771.9387062;-71.73863983154297;0
1579710771.9387248;-67.52162170410156;0
1579710772.0950592;0.3714071214199066;0
1579710772.1020768;0.368845671415329;0
1579710772.1020892;0.37781068682670593;0
1579710772.1020966;0.37781068682670593;0
1579710772.1021032;0.3752492666244507;0
1579710772.1021092;0.37781068682670593;0
1579710772.1021166;-43.06676483154297;0
1579710772.1021233;1.1364593505859375;0
1579710772.1021295;57.672325134277344;0
1579710772.1021383;114.97879028320312;0
1579710772.102149;161.88645935058594;0
1579710772.1021554;192.0476531982422;0
1579710772.1021614;205.2511444091797;0
1579710772.1021674;206.04066467285156;0
1579710772.102173;200.03472900390625;0
1579710772.1021788;190.48028564453125;0
1579710772.1021852;176.9244384765625;0
1579710772.2742753;30.610000610351562;0
1579710772.280041;30.610000610351562;0
1579710772.2800527;30.610000610351562;0
1579710772.2800608;30.610000610351562;0
1579710772.280068;30.610000610351562;0
1579710772.280074;30.610000610351562;0
1579710772.28008;30.610000610351562;0
1579710772.2800858;30.610000610351562;0
1579710772.2801287;156.3933563232422;0
1579710772.2801359;126.53401184082031;0
1579710772.2801557;88.10102844238281;0
1579710772.2801652;45.7503662109375;0
1579710772.2801719;5.649840354919434;0
1579710772.280178;-27.015911102294922;0
1579710772.2801843;-50.56169128417969;0
1579710772.2801905;-67.0332260131836;0
1579710772.2801962;-80.838134765625;0
1579710772.2802017;-96.23745727539062;0
1579710772.280208;-115.18782806396484;0
1579710772.4618945;-136.64308166503906;0
1579710772.4619129;-157.10189819335938;0
1579710772.461927;-173.18170166015625;0
1579710772.4619408;-182.00115966796875;0
1579710772.4619553;-181.48513793945312;0
1579710772.461969;-169.791259765625;0
1579710772.4619825;-145.91050720214844;0
1579710772.4619966;-111.0324478149414;0
1579710772.4620101;-69.6318130493164;0
1579710772.4620247;-29.950531005859375;0
1579710772.4620388;-1.5131721496582031;0
1579710772.6712146;7.602710723876953;0
1579710772.679587;-4.236177444458008;0
1579710772.679599;-30.267005920410156;0
1579710772.6796072;-56.6407356262207;0
1579710772.679614;-67.65737915039062;0
1579710772.679661;-52.345375061035156;0
1579710772.679675;-7.838844299316406;0
1579710772.679686;60.217979431152344;0
1579710772.6796963;141.92428588867188;0
1579710772.6797068;226.51605224609375;0
1579710772.6797185;302.59832763671875;0
1579710772.798268;357.825439453125;0
1579710772.8039029;384.9423828125;0
1579710772.8039377;384.8497314453125;0
1579710772.8039634;362.0963439941406;0
1579710772.803985;318.8677062988281;0
1579710772.8040054;253.2248992919922;0
1579710772.804026;168.82293701171875;0
1579710772.8040466;67.17649841308594;0
1579710772.8040774;-43.019012451171875;0
1579710772.8040967;-147.8992462158203;0
1579710772.8041162;-233.36505126953125;0
1579710772.9619355;-290.91064453125;0
1579710772.9742377;-321.3999938964844;0
1579710772.9742594;-326.38629150390625;0
1579710772.974276;-313.4682312011719;0
1579710772.9742901;-291.13720703125;0
1579710772.9743044;-266.58074951171875;0
1579710772.9743192;-242.84579467773438;0
1579710772.9743333;-219.92977905273438;0
1579710772.9743474;-196.41395568847656;0
1579710772.974361;-171.63986206054688;0
1579710772.9743748;-146.92776489257812;0
1579710773.161703;-124.89176940917969;0
1579710773.1696873;-108.89665222167969;0
1579710773.1697042;-100.538818359375;0
1579710773.169718;-99.47649383544922;0
1579710773.1697307;-102.6226806640625;0
1579710773.1697428;-105.41737365722656;0
1579710773.1697545;-102.99227905273438;0
1579710773.1702068;-91.62954711914062;0
1579710773.1702209;-69.92607879638672;0
1579710773.1702323;-38.81657791137695;0
1579710773.170243;-1.4970703125;0
1579710773.281778;38.38240432739258;0
1579710773.288566;76.99906921386719;0
1579710773.2885902;111.55564880371094;0
1579710773.2886097;140.0204315185547;0
1579710773.288625;161.34828186035156;0
1579710773.2886405;175.31570434570312;0
1579710773.2886534;182.23658752441406;0
1579710773.2886672;183.11630249023438;0
1579710773.288685;179.09341430664062;0
1579710773.288699;171.73793029785156;0
1579710773.2887201;162.42776489257812;0
1579710773.4613652;152.25247192382812;0
1579710773.466291;141.52349853515625;0
1579710773.4663098;129.79827880859375;0
1579710773.4663227;116.1269760131836;0
1579710773.4663348;99.40928649902344;0
1579710773.4663458;79.06745910644531;0
1579710773.4663568;55.26401138305664;0
1579710773.4726238;29.31684112548828;0
1579710773.4726427;3.3955326080322266;0
1579710773.4726558;-20.044471740722656;0
1579710773.4726677;-39.038787841796875;0
1579710773.581605;0.37396854162216187;0
1579710773.586907;0.3765299618244171;0
1579710773.5869257;0.37268781661987305;0
1579710773.586938;0.3752492666244507;0
1579710773.5869489;0.37268781661987305;0
1579710773.5869606;0.3752492666244507;0
1579710773.6224964;-52.57820129394531;0
1579710773.6304011;-60.66805648803711;0
1579710773.6304235;-64.03449249267578;0
1579710773.6304395;-63.6224250793457;0
1579710773.630454;-60.14177322387695;0
1579710773.6304667;-53.72502517700195;0
1579710773.6304796;-43.93666458129883;0
1579710773.6304936;-30.294885635375977;0
1579710773.6305072;-12.787076950073242;0
1579710773.6305215;7.634212017059326;0
1579710773.6305354;28.972671508789062;0
1579710773.801151;48.431800842285156;0
1579710773.8107285;63.20231628417969;0
1579710773.810752;71.09497833251953;0
1579710773.810761;71.2545394897461;0
1579710773.8107758;64.46347045898438;0
1579710773.810788;52.818172454833984;0
1579710773.8107986;39.21519088745117;0
1579710773.8108099;26.57087516784668;0
1579710773.811181;17.098072052001953;0
1579710773.8111892;11.896242141723633;0
1579710773.8111956;10.858870506286621;0
1579710774.0013602;12.956245422363281;0
1579710774.0099247;16.724124908447266;0
1579710774.009943;20.936840057373047;0
1579710774.009956;24.857643127441406;0
1579710774.0099676;28.43743133544922;0
1579710774.0099792;32.01518630981445;0
1579710774.0099902;35.6954345703125;0
1579710774.010001;38.93305587768555;0
1579710774.0100117;40.38066864013672;0
1579710774.010022;38.29961013793945;0
1579710774.010033;31.29928970336914;0
1579710774.1412532;19.08102035522461;0
1579710774.147871;2.702587127685547;0
1579710774.1478934;-15.577999114990234;0
1579710774.1479104;-33.05295181274414;0
1579710774.1479259;-47.417198181152344;0
1579710774.1479406;-57.21051788330078;0
1579710774.1479545;-62.04932403564453;0
1579710774.1479685;-62.40492630004883;0
1579710774.147982;-59.319278717041016;0
1579710774.1479955;-54.25495147705078;0
1579710774.1480086;-48.9686393737793;0
1579710774.2233791;30.6299991607666;0
1579710774.2301016;30.6299991607666;0
1579710774.230133;30.6299991607666;0
1579710774.2301576;30.6299991607666;0
1579710774.2301702;30.59000015258789;0
1579710774.2301834;30.59000015258789;0
1579710774.2302065;30.59000015258789;0
1579710774.2302206;30.59000015258789;0
1579710774.342428;-45.323448181152344;0
1579710774.3474903;-45.08498001098633;0
1579710774.3475065;-49.51706314086914;0
1579710774.3475282;-58.91888427734375;0
1579710774.347542;-72.56338500976562;0
1579710774.347554;-88.87290954589844;0
1579710774.3475657;-105.84330749511719;0
1579710774.3475766;-121.65467834472656;0
1579710774.347588;-135.0739288330078;0
1579710774.3475993;-145.68955993652344;0
1579710774.3476105;-153.5131072998047;0
1579710774.5265684;-158.58201599121094;0
1579710774.5265772;-160.41995239257812;0
1579710774.526584;-157.88134765625;0
1579710774.5265908;-149.58200073242188;0
1579710774.5265968;-134.47628784179688;0
1579710774.5266027;-112.48506927490234;0
1579710774.5266094;-84.77107238769531;0
1579710774.5269191;-53.63215637207031;0
1579710774.5269282;-21.99513053894043;0
1579710774.526935;7.042939186096191;0
1579710774.5269415;30.82379913330078;0
1579710774.7041125;47.55840301513672;0
1579710774.711036;56.9066047668457;0
1579710774.7110474;60.15251541137695;0
1579710774.7110558;60.06660842895508;0
1579710774.7110634;59.95977783203125;0
1579710774.7110696;62.2841796875;0
1579710774.7110758;67.50727081298828;0
1579710774.711082;73.84342956542969;0
1579710774.7110877;78.20829772949219;0
1579710774.7110932;77.91517639160156;0
1579710774.7110991;72.38407897949219;0
1579710774.8853302;63.36331558227539;0
1579710774.8927598;54.080718994140625;0
1579710774.892795;47.57193374633789;0
1579710774.8928096;45.35303497314453;0
1579710774.8928218;47.28121566772461;0
1579710774.8928337;52.35740661621094;0
1579710774.8928456;59.809242248535156;0
1579710774.8928568;69.419677734375;0
1579710774.8928692;80.99057006835938;0
1579710774.8928804;93.32295227050781;0
1579710774.892892;103.98760223388672;0
1579710775.0114813;109.90143585205078;0
1579710775.0181491;108.80452728271484;0
1579710775.0181606;100.5127182006836;0
1579710775.0181687;87.07015228271484;0
1579710775.0181766;71.71918487548828;0
1579710775.0181835;57.245330810546875;0
1579710775.0181897;44.69548034667969;0
1579710775.0182025;33.26825714111328;0
1579710775.0182142;21.25725555419922;0
1579710775.0182328;7.45916748046875;0
1579710775.0182455;-8.019401550292969;0
1579710775.0917978;0.3701263964176178;0
1579710775.0989888;0.3752492666244507;0
1579710775.0990002;0.37268781661987305;0
1579710775.0990078;0.38165283203125;0
1579710775.0990152;0.3803721070289612;0
1579710775.099022;0.3880563974380493;0
1579710775.1931398;-23.58788299560547;0
1579710775.2021368;-37.028419494628906;0
1579710775.2021637;-46.387107849121094;0
1579710775.2021773;-50.65870666503906;0
1579710775.20219;-49.939208984375;0
1579710775.2022014;-45.08860778808594;0
1579710775.202212;-37.497520446777344;0
1579710775.202223;-28.657012939453125;0
1579710775.202764;-20.053077697753906;0
1579710775.2027862;-12.77105712890625;0
1579710775.2027988;-7.285774230957031;0
1579710775.3513656;-3.2646560668945312;0
1579710775.3584702;0.3512725830078125;0
1579710775.3584862;4.798431396484375;0
1579710775.3584955;11.009956359863281;0
1579710775.3585026;19.102401733398438;0
1579710775.3585095;28.38385772705078;0
1579710775.3585162;37.61498260498047;0
1579710775.3585224;45.69402313232422;0
1579710775.358528;51.89213562011719;0
1579710775.3585339;55.90972900390625;0
1579710775.3585398;57.68865203857422;0
1579710775.531569;57.15940856933594;0
1579710775.538074;54.37411880493164;0
1579710775.5380912;49.62019348144531;0
1579710775.5381043;43.57395935058594;0
1579710775.5381157;37.07914733886719;0
1579710775.5381274;30.925582885742188;0
1579710775.5381384;25.442317962646484;0
1579710775.5381489;20.383392333984375;0
1579710775.5381634;15.085700988769531;0
