1579710512.6133363;0.8596259355545044;0
1579710512.7607336;52.62969970703125;0
1579710512.7649584;64.1656494140625;0
1579710512.7649708;74.23309326171875;0
1579710512.7649791;82.29501342773438;0
1579710512.7760463;89.0670166015625;0
1579710512.7760572;95.938720703125;0
1579710512.7760673;103.9722900390625;0
1579710512.7810307;113.16555786132812;0
1579710512.7810574;122.373291015625;0
1579710512.7810793;129.94305419921875;0
1579710512.7810988;134.49044799804688;0
1579710512.987752;135.338623046875;0
1579710512.994959;132.3253173828125;0
1579710512.9949815;125.43374633789062;0
1579710512.9949977;114.5855712890625;0
1579710512.9950128;99.88470458984375;0
1579710512.9950266;82.1163330078125;0
1579710512.9950392;62.9085693359375;0
1579710512.995052;44.5252685546875;0
1579710512.9950674;29.06829833984375;0
1579710512.9950814;17.65167236328125;0
1579710512.9950948;10.100830078125;0
1579710513.1083748;5.22998046875;0
1579710513.113099;1.7406005859375;0
1579710513.1131105;-1.17449951171875;0
1579710513.1131182;-3.52728271484375;0
1579710513.1131246;-5.0321044921875;0
1579710513.1131337;-5.625213623046875;0
1579710513.1131399;-5.869964599609375;0
1579710513.1131456;-7.050628662109375;0
1579710513.1131525;-10.842559814453125;0
1579710513.1131587;-18.96575927734375;0
1579710513.1131642;-32.5458984375;0
1579710513.2586448;-51.60809326171875;0
1579710513.270154;-74.60638427734375;0
1579710513.2701774;-98.71005249023438;0
1579710513.2701943;-120.56231689453125;0
1579710513.2702088;-137.40176391601562;0
1579710513.270223;-148.05136108398438;0
1579710513.270236;-153.046142578125;0
1579710513.2702498;-154.05255126953125;0
1579710513.2702627;-152.729248046875;0
1579710513.2702863;-149.80755615234375;0
1579710513.2703;-144.93545532226562;0
1579710513.4464207;-137.37460327148438;0
1579710513.4552906;-126.83248901367188;0
1579710513.4553015;-113.98675537109375;0
1579710513.4553092;-100.33670043945312;0
1579710513.455316;-87.2420654296875;0
1579710513.455323;-75.27142333984375;0
1579710513.4557004;-63.94989013671875;0
1579710513.4557095;-52.139007568359375;0
1579710513.455723;-38.7347412109375;0
1579710513.4557292;-23.34539794921875;0
1579710513.455735;-6.590606689453125;0
1579710513.6877515;10.068359375;0
1579710513.6965873;24.696746826171875;0
1579710513.696712;35.593597412109375;0
1579710513.6967347;41.784393310546875;0
1579710513.696754;43.28094482421875;0
1579710513.696769;41.12982177734375;0
1579710513.6967854;36.962127685546875;0
1579710513.6967993;32.4061279296875;0
1579710513.6968129;28.6146240234375;0
1579710513.696827;26.068450927734375;0
1579710513.6968415;24.692474365234375;0
1579710513.7784088;24.356475830078125;0
1579710513.7871406;25.07861328125;0
1579710513.7871501;27.0767822265625;0
1579710513.787159;30.59368896484375;0
1579710513.787166;35.561492919921875;0
1579710513.7871723;41.501556396484375;0
1579710513.7871783;47.67352294921875;0
1579710513.7871842;53.2578125;0
1579710513.7871897;57.62774658203125;0
1579710513.7871969;60.545257568359375;0
1579710513.7872093;62.051300048828125;0
1579710514.0829282;62.3189697265625;0
1579710514.082938;61.528228759765625;0
1579710514.0829449;59.73553466796875;0
1579710514.0829506;56.8763427734375;0
1579710514.0829566;52.95404052734375;0
1579710514.0829623;48.052490234375;0
1579710514.0829675;42.4403076171875;0
1579710514.0829735;36.57208251953125;0
1579710514.082979;30.92132568359375;0
1579710514.0829854;25.822784423828125;0
1579710514.0829911;21.47515869140625;0
1579710514.1368861;0.8583452701568604;0
1579710514.1424901;0.8557838201522827;0
1579710514.1425014;0.8545030951499939;0
1579710514.142509;0.8506609797477722;0
1579710514.1425152;0.8545030951499939;0
1579710514.1425285;0.8609066605567932;0
1579710514.1425436;17.90252685546875;0
1579710514.1425545;15.0091552734375;0
1579710514.142566;12.730682373046875;0
1579710514.142575;10.9522705078125;0
1579710514.142586;9.469573974609375;0
1579710514.1425955;8.000518798828125;0
1579710514.142605;6.259521484375;0
1579710514.1429887;4.007171630859375;0
1579710514.1429973;1.290252685546875;0
1579710514.1430035;-1.66680908203125;0
1579710514.1430094;-4.538299560546875;0
1579710514.2278945;29.709999084472656;0
1579710514.236099;29.709999084472656;0
1579710514.2361112;29.709999084472656;0
1579710514.2361186;29.709999084472656;0
1579710514.2361252;29.690000534057617;0
1579710514.2361321;29.690000534057617;0
1579710514.2361383;29.690000534057617;0
1579710514.2361443;29.690000534057617;0
1579710514.3073218;-7.112396240234375;0
1579710514.31738;-9.355560302734375;0
1579710514.3173907;-11.402984619140625;0
1579710514.3173976;-13.355010986328125;0
1579710514.3174043;-15.12457275390625;0
1579710514.3174112;-16.44403076171875;0
1579710514.317417;-16.95489501953125;0
1579710514.3174229;-16.506927490234375;0
1579710514.3174288;-15.228912353515625;0
1579710514.3174343;-13.548980712890625;0
1579710514.3174403;-12.032318115234375;0
1579710514.4960864;-11.09588623046875;0
1579710514.4961057;-10.80621337890625;0
1579710514.49612;-10.9287109375;0
1579710514.496136;-11.004791259765625;0
1579710514.49615;-10.628143310546875;0
1579710514.496164;-9.662384033203125;0
1579710514.4961777;-8.267303466796875;0
1579710514.5015523;-6.73614501953125;0
1579710514.5015724;-5.35833740234375;0
1579710514.5015907;-4.210845947265625;0
1579710514.5016139;-3.154205322265625;0
1579710514.6853023;-1.943939208984375;0
1579710514.6853185;-0.4493408203125;0
1579710514.6853325;1.2381591796875;0
1579710514.685346;2.833343505859375;0
1579710514.685359;3.980682373046875;0
1579710514.6853724;4.56787109375;0
1579710514.6853852;4.60296630859375;0
1579710514.685399;4.326934814453125;0
1579710514.685412;3.973358154296875;0
1579710514.685425;3.719085693359375;0
1579710514.685438;3.58697509765625;0
1579710514.8882627;3.49176025390625;0
1579710514.896001;3.28021240234375;0
1579710514.8960314;2.752655029296875;0
1579710514.8960512;1.786773681640625;0
1579710514.8960686;0.29296875;0
1579710514.8960857;-1.633087158203125;0
1579710516.2664742;29.690000534057617;0
1579710516.2664838;29.690000534057617;0
1579710516.2664948;29.690000534057617;0
1579710516.2665055;29.690000534057617;0
1579710516.2665145;29.690000534057617;0
1579710516.3824382;8.242401123046875;0
1579710516.392575;9.56298828125;0
1579710516.3925924;10.9837646484375;0
1579710516.3926084;12.134124755859375;0
1579710516.392621;12.682769775390625;0
1579710516.392632;12.539794921875;0
1579710516.3926432;11.903350830078125;0
1579710516.3926544;11.108673095703125;0
1579710516.3926644;10.458740234375;0
1579710516.3926752;10.087310791015625;0
1579710516.3926857;9.88043212890625;0
1579710516.568228;9.696533203125;0
1579710516.568242;9.462982177734375;0
1579710516.5682487;9.1959228515625;0
1579710516.5682545;8.971435546875;0
1579710516.5682602;8.80389404296875;0
1579710516.5682669;8.582305908203125;0
1579710516.568272;8.14276123046875;0
1579710516.568278;7.3836669921875;0
1579710516.5682838;6.3048095703125;0
1579710516.568289;5.09942626953125;0
1579710516.5683026;3.986572265625;0
1579710516.7724392;3.1685791015625;0
1579710516.7724464;2.67608642578125;0
1579710516.772455;2.457244873046875;0
1579710516.772461;2.342620849609375;0
1579710516.7724667;2.108673095703125;0
1579710516.7724724;1.611083984375;0
1579710516.772478;0.696502685546875;0
1579710516.772484;-0.604461669921875;0
1579710516.77249;-2.1851806640625;0
1579710516.7724967;-3.890289306640625;0
1579710516.7725022;-5.583587646484375;0
1579710516.901217;-7.2449951171875;0
1579710516.9079258;-8.9517822265625;0
1579710516.9079545;-10.831451416015625;0
1579710516.9079826;-12.914886474609375;0
1579710516.9079976;-15.11749267578125;0
1579710516.9080124;-17.196807861328125;0
1579710516.9080267;-18.90911865234375;0
1579710516.90804;-20.0325927734375;0
1579710516.908054;-20.524658203125;0
1579710516.9080675;-20.4774169921875;0
1579710516.9080794;-20.0728759765625;0
1579710517.0794597;-19.5145263671875;0
1579710517.087266;-18.928131103515625;0
1579710517.08796;-18.3675537109375;0
1579710517.0879796;-17.718658447265625;0
1579710517.0880044;-16.783905029296875;0
1579710517.0880191;-15.365875244140625;0
1579710517.088033;-13.392730712890625;0
1579710517.0880463;-11.045654296875;0
1579710517.0880606;-8.697479248046875;0
1579710517.088073;-6.86370849609375;0
1579710517.0880852;-5.89874267578125;0
1579710517.117773;0.8545030951499939;0
1579710517.124883;0.8570645451545715;0
1579710517.1248944;0.8455380797386169;0
1579710517.1249013;0.8480995297431946;0
1579710517.124908;0.8404152393341064;0
1579710517.124914;0.8365731239318848;0
1579710517.23896;-5.85443115234375;0
1579710517.245799;-6.377532958984375;0
1579710517.2458196;-6.869537353515625;0
1579710517.2458346;-6.76275634765625;0
1579710517.2458482;-5.737548828125;0
1579710517.245862;-3.928863525390625;0
1579710517.2458744;-1.858642578125;0
1579710517.2458878;-0.3302001953125;0
1579710517.2459006;-0.180999755859375;0
1579710517.2459142;-2.024627685546875;0
1579710517.2459269;-6.05560302734375;0
1579710517.378453;-11.8265380859375;0
1579710517.3858185;-18.144287109375;0
1579710517.385831;-23.158843994140625;0
1579710517.3858383;-24.74365234375;0
1579710517.3858452;-21.06158447265625;0
1579710517.3858516;-11.30145263671875;0
1579710517.3858576;3.80902099609375;0
1579710517.3858638;22.079925537109375;0
1579710517.3858695;40.394317626953125;0
1579710517.385875;55.7044677734375;0
1579710517.3858817;65.96401977539062;0
1579710517.5790863;70.61459350585938;0
1579710517.585727;70.37786865234375;0
1579710517.585758;66.73382568359375;0
1579710517.5857744;61.11016845703125;0
1579710517.5857906;54.459503173828125;0
1579710517.585805;47.241729736328125;0
1579710517.5858188;39.670257568359375;0
1579710517.585832;32.041015625;0
1579710517.5858462;24.847259521484375;0
1579710517.5858593;18.6357421875;0
1579710517.5858836;13.731658935546875;0
1579710517.7578478;10.122894287109375;0
1579710517.7646096;7.42974853515625;0
1579710517.7646267;5.05694580078125;0
1579710517.7652082;2.508575439453125;0
1579710517.7652245;-0.490234375;0
1579710517.7652369;-3.89056396484375;0
1579710517.7652497;-7.392242431640625;0
1579710517.7652621;-10.62640380859375;0
1579710517.765274;-13.29034423828125;0
1579710517.765285;-15.284423828125;0
1579710517.7652967;-16.7845458984375;0
1579710517.9180593;-18.129852294921875;0
1579710517.9240751;-19.688232421875;0
1579710517.9240897;-21.686004638671875;0
1579710517.9240973;-24.057525634765625;0
1579710517.9241033;-26.463104248046875;0
1579710517.9241095;-28.402069091796875;0
1579710517.9241154;-29.518280029296875;0
1579710517.9241211;-29.6715087890625;0
1579710517.9241276;-29.09002685546875;0
1579710517.924133;-28.1990966796875;0
1579710517.9241393;-27.326202392578125;0
1579710518.0890863;-26.606201171875;0
1579710518.0936441;-25.885498046875;0
1579710518.093659;-24.865081787109375;0
1579710518.0936675;-23.359039306640625;0
1579710518.0936747;-21.381744384765625;0
1579710518.0936859;-19.136322021484375;0
1579710518.0936942;-16.855621337890625;0
1579710518.0937014;-14.675628662109375;0
1579710518.0937076;-12.476409912109375;0
1579710518.0937135;-10.0235595703125;0
1579710518.0937204;-7.130340576171875;0
1579710518.2505422;29.690000534057617;0
1579710518.2564068;29.690000534057617;0
1579710518.2564185;29.690000534057617;0
1579710518.2564256;29.690000534057617;0
1579710518.2564316;29.690000534057617;0
1579710518.2564378;29.690000534057617;0
1579710518.256444;29.690000534057617;0
1579710518.2564497;29.690000534057617;0
1579710518.2564561;-3.778564453125;0
1579710518.2564626;-0.20794677734375;0
1579710518.2564683;3.232177734375;0
1579710518.2564738;6.2158203125;0
1579710518.2564797;8.62664794921875;0
1579710518.2564857;10.517547607421875;0
1579710518.2564914;12.120269775390625;0
1579710518.2564976;13.668792724609375;0
1579710518.2565105;15.227996826171875;0
1579710518.2565172;16.734405517578125;0
1579710518.2565234;17.974029541015625;0
1579710518.435034;18.75811767578125;0
1579710518.4350436;18.964691162109375;0
1579710518.4354095;18.65093994140625;0
1579710518.4354188;17.926239013671875;0
1579710518.4354253;16.9757080078125;0
1579710518.4354324;15.896331787109375;0
1579710518.4354446;14.708221435546875;0
1579710518.4354508;13.417724609375;0
1579710518.4354572;11.99945068359375;0
1579710518.435463;10.544708251953125;0
1579710518.435469;9.20745849609375;0
1579710518.6185615;8.1766357421875;0
1579710518.6185772;7.5634765625;0
1579710518.6185904;7.347900390625;0
1579710518.6186037;7.34234619140625;0
1579710518.6186163;7.2896728515625;0
1579710518.6186292;6.96868896484375;0
1579710518.6186416;6.25347900390625;0
1579710518.6186593;5.144317626953125;0
1579710518.6186728;3.7564697265625;0
1579710518.6247406;2.286376953125;0
1579710518.62476;0.88983154296875;0
1579710518.6247787;0.8340116739273071;0
1579710518.624794;0.8314502239227295;0
1579710518.6248078;0.835292398929596;0
1579710518.624822;0.8340116739273071;0
1579710518.6248353;0.8340116739273071;0
1579710518.624849;0.835292398929596;0
1579710518.7947946;-0.29949951171875;0
1579710518.7948055;-1.205596923828125;0
1579710518.7948165;-1.83905029296875;0
1579710518.794825;-2.22003173828125;0
1579710518.794832;-2.466888427734375;0
1579710518.794838;-2.713653564453125;0
1579710518.7948442;-3.10101318359375;0
1579710518.794861;-3.746612548828125;0
1579710518.7948723;-4.69781494140625;0
1579710518.794881;-5.95758056640625;0
1579710518.7948875;-7.43756103515625;0
1579710519.0075428;-9.0233154296875;0
1579710519.0132024;-10.4652099609375;0
1579710519.013214;-11.5037841796875;0
1579710519.013225;-11.890167236328125;0
1579710519.0132325;-11.496734619140625;0
1579710519.0132391;-10.400146484375;0
1579710519.0132465;-8.866912841796875;0
1579710519.013253;-7.236419677734375;0
1579710519.0132592;-5.796844482421875;0
1579710519.0132651;-4.672149658203125;0
1579710519.013272;-3.7427978515625;0
1579710519.1198964;-2.75689697265625;0
1579710519.1294131;-1.467437744140625;0
1579710519.1294317;0.197479248046875;0
1579710519.1300497;2.205718994140625;0
1579710519.1300657;4.366943359375;0
1579710519.1300795;6.51971435546875;0
1579710519.1300912;8.524627685546875;0
1579710519.130102;10.2437744140625;0
1579710519.130114;11.574188232421875;0
1579710519.130124;12.4254150390625;0
1579710519.1301346;12.74053955078125;0
1579710519.3297834;12.5753173828125;0
1579710519.3374853;12.018463134765625;0
1579710519.3374994;11.211883544921875;0
1579710519.3375077;10.2308349609375;0
1579710519.3375154;9.14935302734375;0
1579710519.337522;8.05267333984375;0
1579710519.3375292;7.0894775390625;0
1579710519.3375359;6.44659423828125;0
1579710519.337543;6.258209228515625;0
1579710519.3375497;6.5218505859375;0
1579710519.3375554;7.001220703125;0
1579710519.4405513;7.37103271484375;0
1579710519.4480584;7.31207275390625;0
1579710519.4481535;6.724609375;0
1579710519.4482324;5.709228515625;0
1579710519.4482512;4.541290283203125;0
1579710519.448262;3.3973388671875;0
1579710519.4484031;2.36248779296875;0
1579710519.448438;1.36370849609375;0
1579710519.4484553;0.249755859375;0
1579710519.448477;-1.053009033203125;0
1579710519.4485004;-2.492095947265625;0
1579710519.6378446;-3.871002197265625;0
1579710519.6447873;-5.033935546875;0
1579710519.6447995;-5.902587890625;0
1579710519.6448073;-6.59716796875;0
1579710519.6448205;-7.327239990234375;0
1579710519.6448302;-8.266143798828125;0
1579710519.6448374;-9.47344970703125;0
1579710519.644844;-10.87835693359375;0
1579710519.6448512;-12.285003662109375;0
1579710519.6448574;-13.528778076171875;0
1579710519.6448631;-14.49462890625;0
1579710519.8193073;-15.237060546875;0
1579710519.8261352;-15.94342041015625;0
1579710519.826152;-16.8231201171875;0
1579710519.8261662;-17.9971923828125;0
1579710519.826181;-19.464019775390625;0
1579710519.8261938;-21.039825439453125;0
1579710519.826206;-22.403900146484375;0
1579710519.8262172;-23.22601318359375;0
1579710519.8262293;-23.18341064453125;0
1579710519.826244;-22.145050048828125;0
1579710519.82675;-20.19427490234375;0
1579710519.9777741;-17.56610107421875;0
1579710519.9866655;-14.586639404296875;0
1579710519.9866793;-11.57110595703125;0
1579710519.986688;-8.6644287109375;0
1579710519.9866958;-5.916229248046875;0
1579710519.9867024;-3.259979248046875;0
1579710519.9867089;-0.62451171875;0
1579710519.9867158;1.97442626953125;0
1579710519.9867225;4.402801513671875;0
1579710519.9867291;6.468048095703125;0
1579710519.9867356;7.985137939453125;0
1579710520.1277158;0.8340116739273071;0
1579710520.136474;0.8327309489250183;0
1579710520.1364977;0.8288888335227966;0
1579710520.136513;0.8288888335227966;0
1579710520.1365273;0.8237659931182861;0
1579710520.1365438;0.8237659931182861;0
1579710520.170531;8.895050048828125;0
1579710520.178278;9.29400634765625;0
1579710520.1782908;9.376495361328125;0
1579710520.178298;9.31146240234375;0
1579710520.178305;9.208892822265625;0
1579710520.1783106;9.11236572265625;0
1579710520.1783164;9.04693603515625;0
1579710520.178322;9.14208984375;0
1579710520.1783283;9.4998779296875;0
1579710520.178335;10.234405517578125;0
1579710520.1783412;11.33892822265625;0
1579710520.22745;29.709999084472656;0
1579710520.234894;29.709999084472656;0
1579710520.2349095;29.709999084472656;0
1579710520.2349184;29.709999084472656;0
1579710520.2349257;29.690000534057617;0
1579710520.2349324;29.690000534057617;0
1579710520.234939;29.690000534057617;0
1579710520.2349463;29.690000534057617;0
1579710520.3080914;12.632354736328125;0
1579710520.3161418;13.779327392578125;0
1579710520.3161528;14.491851806640625;0
1579710520.3161604;14.595916748046875;0
1579710520.3161676;14.10626220703125;0
1579710520.3161736;13.20745849609375;0
1579710520.3161867;12.048828125;0
1579710520.3161929;10.805877685546875;0
1579710520.316199;9.614166259765625;0
1579710520.3162048;8.526092529296875;0
1579710520.3162115;7.560821533203125;0
1579710520.4943588;6.696929931640625;0
1579710520.4943666;5.8463134765625;0
1579710520.4943733;4.841400146484375;0
1579710520.4947746;3.54376220703125;0
1579710520.4947832;1.8338623046875;0
1579710520.4947898;-0.254608154296875;0
1579710520.494796;-2.5196533203125;0
1579710520.4948015;-4.673095703125;0
1579710520.4948072;-6.43792724609375;0
1579710520.494813;-7.636474609375;0
1579710520.4948199;-8.223663330078125;0
1579710520.686797;-8.385009765625;0
1579710520.6868067;-8.329010009765625;0
1579710520.6868129;-8.38787841796875;0
1579710520.6868186;-8.79486083984375;0
1579710520.6868255;-9.672210693359375;0
1579710520.6868317;-10.988037109375;0
1579710520.6868372;-12.6197509765625;0
1579710520.6868434;-14.387725830078125;0
1579710520.6868494;-16.103302001953125;0
1579710520.6868558;-17.65789794921875;0
1579710520.6868615;-18.89093017578125;0
1579710520.8974075;-19.745635986328125;0
1579710520.897416;-20.12286376953125;0
1579710520.8974228;-19.969818115234375;0
1579710520.8974288;-19.20751953125;0
1579710520.8974345;-17.8154296875;0
1579710520.8974402;-15.8824462890625;0
1579710520.8974464;-13.530731201171875;0
1579710520.89746;-10.957366943359375;0
1579710520.8974662;-8.286529541015625;0
1579710520.8974717;-5.6265869140625;0
1579710520.8974774;-3.02923583984375;0
1579710521.0281107;-0.5216064453125;0
1579710521.0352345;1.856597900390625;0
1579710521.0352516;4.03887939453125;0
1579710521.0352647;5.938507080078125;0
1579710521.0352767;7.5115966796875;0
1579710521.0352879;8.692840576171875;0
1579710521.0353003;9.520111083984375;0
1579710521.0353122;10.042510986328125;0
1579710521.0353234;10.340667724609375;0
1579710521.0353343;10.489288330078125;0
1579710521.035345;10.54327392578125;0
1579710521.1984925;10.5909423828125;0
1579710521.2100961;10.6844482421875;0
1579710521.21011;10.919281005859375;0
1579710521.2101183;11.29022216796875;0
1579710521.2101312;11.804229736328125;0
1579710521.2101426;12.409759521484375;0
1579710521.2101521;13.033111572265625;0
1579710521.2101586;13.61920166015625;0
1579710521.2101645;14.11273193359375;0
1579710521.2101703;14.4744873046875;0
1579710521.2105253;14.637451171875;0
1579710521.378392;14.54986572265625;0
1579710521.385929;14.054779052734375;0
1579710521.3859496;13.057403564453125;0
1579710521.3859644;11.531982421875;0
1579710521.3859775;9.5343017578125;0
1579710521.3860006;7.28582763671875;0
1579710521.3860164;5.043670654296875;0
1579710521.3860412;3.04754638671875;0
1579710521.3860538;1.385284423828125;0
1579710521.3860662;0.0438232421875;0
1579710521.386079;-1.136505126953125;0
1579710521.5198715;-2.334716796875;0
1579710521.5332556;-3.650146484375;0
1579710521.533275;-5.173583984375;0
1579710521.5332901;-6.881103515625;0
1579710521.5333087;-8.713104248046875;0
1579710521.5333242;-10.56781005859375;0
1579710521.5333405;-12.375762939453125;0
1579710521.5333543;-14.001068115234375;0
1579710521.5333683;-15.37493896484375;0
1579710521.5333815;-16.436767578125;0
1579710521.5333953;-17.212127685546875;0
1579710521.6678503;0.8224852681159973;0
1579710521.6748252;0.8199238181114197;0
1579710521.6748488;0.8173624277114868;0
1579710521.6748672;0.816081702709198;0
1579710521.674882;0.816081702709198;0
1579710521.6748977;0.8083974123001099;0
1579710521.6880836;-17.8685302734375;0
1579710521.6928215;-18.609832763671875;0
1579710521.6928432;-19.575775146484375;0
1579710521.6928592;-20.768768310546875;0
1579710521.6928728;-21.974639892578125;0
1579710521.6928854;-22.816680908203125;0
1579710521.6928985;-22.95556640625;0
1579710521.6977925;-22.16522216796875;0
1579710521.6978033;-20.440231323242188;0
1579710521.6978106;-18.054763793945312;0
1579710521.6978168;-15.332168579101562;0
1579710521.8905425;-12.58294677734375;0
1579710521.8969665;-9.9293212890625;0
1579710521.8969784;-7.325103759765625;0
1579710521.8969853;-4.6063232421875;0
1579710521.8969927;-1.5959625244140625;0
1579710521.8969986;1.74139404296875;0
1579710521.8970046;5.380401611328125;0
1579710521.8970113;9.143356323242188;0
1579710521.8970172;12.8565673828125;0
1579710521.8970282;16.374801635742188;0
1579710521.8970404;19.576751708984375;0
1579710522.0283334;22.349563598632812;0
1579710522.036972;24.548995971679688;0
1579710522.0370078;25.984451293945312;0
1579710522.037031;26.442031860351562;0
1579710522.0370514;25.879165649414062;0
1579710522.037068;24.399658203125;0
1579710522.0370843;22.353256225585938;0
1579710522.0371006;20.18408203125;0
1579710522.0371149;18.2872314453125;0
1579710522.0371306;16.907791137695312;0
1579710522.037146;16.06939697265625;0
1579710522.2218623;15.662918090820312;0
1579710522.2299757;15.5242919921875;0
1579710522.230017;15.57501220703125;0
1579710522.2300365;15.73333740234375;0
1579710522.2300541;15.974624633789062;0
1579710522.2300699;16.217056274414062;0
1579710522.2300854;16.294448852539062;0
1579710522.2301016;16.008407592773438;0
1579710522.2301154;15.167221069335938;0
1579710522.230128;13.7423095703125;0
1579710522.2301414;11.774658203125;0
1579710522.258405;29.690000534057617;0
1579710522.2685807;29.690000534057617;0
1579710522.268613;29.690000534057617;0
1579710522.268637;29.690000534057617;0
1579710522.2686574;29.729999542236328;0
1579710522.2686746;29.729999542236328;0
1579710522.268691;29.729999542236328;0
1579710522.2687073;29.729999542236328;0
1579710522.3774629;9.4970703125;0
1579710522.3854556;7.13641357421875;0
1579710522.385472;5.020843505859375;0
1579710522.385481;3.3951416015625;0
1579710522.3854904;2.3720245361328125;0
1579710522.3854978;1.9574737548828125;0
1579710522.385505;2.0100250244140625;0
1579710522.3855114;2.3236846923828125;0
1579710522.3855171;2.6373291015625;0
1579710522.3855236;2.767608642578125;0
1579710522.3855295;2.5710296630859375;0
1579710522.5650198;1.9627227783203125;0
1579710522.5650282;0.958465576171875;0
1579710522.5650349;-0.39166259765625;0
1579710522.565042;-1.9925994873046875;0
1579710522.5650477;-3.72479248046875;0
1579710522.5650544;-5.5083160400390625;0
1579710522.565061;-7.2683563232421875;0
1579710522.5650673;-8.933456420898438;0
1579710522.5650735;-10.454345703125;0
1579710522.5650802;-11.80596923828125;0
1579710522.5654507;-13.006454467773438;0
1579710522.7422972;-14.155380249023438;0
1579710522.742314;-15.4097900390625;0
1579710522.7423291;-16.915252685546875;0
1579710522.742344;-18.729095458984375;0
1579710522.742359;-20.691680908203125;0
1579710522.7423728;-22.447158813476562;0
1579710522.7423873;-23.548812866210938;0
1579710522.7424016;-23.63421630859375;0
1579710522.7424157;-22.531509399414062;0
1579710522.7424295;-20.360198974609375;0
1579710522.742443;-17.42864990234375;0
1579710522.9254947;-14.199172973632812;0
1579710522.9255137;-11.059066772460938;0
1579710522.9255288;-8.3052978515625;0
1579710522.9255445;-6.002288818359375;0
1579710522.9255595;-4.0745086669921875;0
1579710522.9255755;-2.3586883544921875;0
1579710522.925591;-0.6201324462890625;0
1579710522.9256048;1.29095458984375;0
1579710522.9256191;3.40673828125;0
1579710522.9256353;0.9219172596931458;0
1579710522.9256501;5.6613311767578125;0
1579710522.9256637;7.83184814453125;0
1579710523.1382387;9.651168823242188;0
1579710523.1481252;10.92596435546875;0
1579710523.1481442;11.549896240234375;0
1579710523.1481571;11.588348388671875;0
1579710523.148168;11.2747802734375;0
1579710523.1481798;10.905990600585938;0
1579710523.148191;10.750900268554688;0
1579710523.148202;10.962249755859375;0
1579710523.1482124;11.4884033203125;0
1579710523.1482315;12.167312622070312;0
1579710523.1482427;12.814453125;0
1579710523.1483202;0.807116687297821;0
1579710523.1483328;0.8032745718955994;0
1579710523.148352;0.8032745718955994;0
1579710523.1483638;0.7955902814865112;0
1579710523.148375;0.7981516718864441;0
1579710523.1483862;0.7917481064796448;0
1579710523.2395248;13.296524047851562;0
1579710523.245594;13.57281494140625;0
1579710523.245625;13.668365478515625;0
1579710523.245645;13.644760131835938;0
1579710523.2456622;13.560943603515625;0
1579710523.2456772;13.389678955078125;0
1579710523.2456956;13.042129516601562;0
1579710523.2457118;12.464309692382812;0
1579710523.2457287;11.585052490234375;0
1579710523.2457447;10.387954711914062;0
1579710523.246364;8.92291259765625;0
1579710523.4584584;7.3289337158203125;0
1579710523.463989;5.7490081787109375;0
1579710523.4640012;4.31903076171875;0
1579710523.4640095;3.0811309814453125;0
1579710523.4640174;1.8852996826171875;0
1579710523.464024;0.572479248046875;0
1579710523.4640305;-0.996002197265625;0
1579710523.4640372;-2.823883056640625;0
1579710523.4640436;-4.6833648681640625;0
1579710523.4640496;-6.2656707763671875;0
1579710523.4640555;-7.3589324951171875;0
1579710523.5678163;-7.9453277587890625;0
1579710523.573472;-8.26220703125;0
1579710523.5734966;-8.659820556640625;0
1579710523.5735114;-9.3663330078125;0
1579710523.5735245;-10.403579711914062;0
1579710523.573537;-11.554595947265625;0
1579710523.5735493;-12.580520629882812;0
1579710523.5735605;-13.350860595703125;0
1579710523.573572;-14.016754150390625;0
1579710523.573583;-14.850372314453125;0
1579710523.573595;-16.104034423828125;0
1579710523.7711966;-17.788162231445312;0
1579710523.7780569;-19.643280029296875;0
1579710523.7780855;-21.281539916992188;0
1579710523.7781048;-22.3511962890625;0
1579710523.7781243;-22.696304321289062;0
1579710523.7781427;-22.451187133789062;0
1579710523.778159;-21.858184814453125;0
1579710523.7781758;-21.132858276367188;0
1579710523.778193;-20.283538818359375;0
1579710523.7782078;-19.0799560546875;0
1579710523.7782228;-17.241989135742188;0
1579710523.938137;-14.54241943359375;0
1579710523.9436712;-11.035446166992188;0
1579710523.9436846;-6.995941162109375;0
1579710523.9436927;-2.8835601806640625;0
1579710523.9437;0.9010162353515625;0
1579710523.9437065;4.1087799072265625;0
1579710523.943713;6.672271728515625;0
1579710523.9437191;1.0625486373901367;0
1579710523.943725;8.688720703125;0
1579710523.9437313;10.238189697265625;0
1579710523.9437368;11.433517456054688;0
1579710523.943743;12.370697021484375;0
1579710524.0975473;13.110427856445312;0
1579710524.1054456;13.722518920898438;0
1579710524.1054633;14.207000732421875;0
1579710524.1054764;14.485580444335938;0
1579710524.105488;14.415969848632812;0
1579710524.1059384;13.931564331054688;0
1579710524.1059523;13.058990478515625;0
1579710524.1059635;11.997299194335938;0
1579710524.105974;10.991607666015625;0
1579710524.1059844;10.257827758789062;0
1579710524.105995;9.875244140625;0
1579710524.2514985;29.729999542236328;0
1579710524.2515194;29.729999542236328;0
1579710524.251535;29.729999542236328;0
1579710524.2515495;29.729999542236328;0
1579710524.2515628;29.729999542236328;0
1579710524.2515771;29.729999542236328;0
1579710524.2515907;29.729999542236328;0
1579710524.2516046;29.729999542236328;0
1579710524.2885063;9.7879638671875;0
1579710524.2940493;9.848876953125;0
1579710524.2940643;9.874176025390625;0
1579710524.294074;9.840713500976562;0
1579710524.294081;9.75018310546875;0
1579710524.2940876;9.693374633789062;0
1579710524.2940943;9.697525024414062;0
1579710524.2941012;9.727447509765625;0
1579710524.2941139;9.738113403320312;0
1579710524.2941217;9.609954833984375;0
1579710524.2941284;9.244064331054688;0
1579710524.4373074;8.493118286132812;0
1579710524.4373243;7.2760009765625;0
1579710524.4373376;5.531158447265625;0
1579710524.4373493;3.340728759765625;0
1579710524.4373689;0.8858795166015625;0
1579710524.4373796;-1.67340087890625;0
1579710524.4373913;-4.1186370849609375;0
1579710524.4374025;-6.3325653076171875;0
1579710524.4374132;-8.275131225585938;0
1579710524.4374244;-9.963226318359375;0
1579710524.4374359;-11.459030151367188;0
1579710524.6135893;0.7917481064796448;0
1579710524.6234086;0.7840638160705566;0
1579710524.6234198;0.7866252660751343;0
1579710524.6234272;0.7866252660751343;0
1579710524.6234338;0.7815024256706238;0
1579710524.62344;0.7789409756660461;0
1579710524.6234472;-12.876327514648438;0
1579710524.6234536;-14.334564208984375;0
1579710524.62346;-15.94708251953125;0
1579710524.6234665;-17.833648681640625;0
1579710524.6234722;-19.99603271484375;0
1579710524.623479;-22.3531494140625;0
1579710524.6234848;-24.699859619140625;0
1579710524.6234903;-26.7940673828125;0
1579710524.6234965;-28.34307861328125;0
1579710524.623894;-29.159164428710938;0
1579710524.6239023;-29.121017456054688;0
1579710524.7945457;-28.181396484375;0
1579710524.7945569;-26.440475463867188;0
1579710524.7945638;-24.047988891601562;0
1579710524.7945707;-21.206222534179688;0
1579710524.7945774;-18.06121826171875;0
1579710524.794584;-14.695755004882812;0
1579710524.7945943;-11.15740966796875;0
1579710524.7946033;-7.4964447021484375;0
1579710524.7946095;-3.8710479736328125;0
1579710524.7946155;-0.52838134765625;0
1579710524.7946215;2.177978515625;0
1579710525.0005999;3.9654693603515625;0
1579710525.0006204;4.704071044921875;0
1579710525.0006378;1.0000457763671875;0
1579710525.0006533;4.49542236328125;0
1579710525.0006697;3.670867919921875;0
1579710525.000684;2.6758575439453125;0
1579710525.0006971;1.84698486328125;0
1579710525.0007105;1.3245086669921875;0
1579710525.000724;1.0308074951171875;0
1579710525.0007384;0.679290771484375;0
1579710525.0007508;0.081207275390625;0
1579710525.0007648;-0.8148040771484375;0
1579710525.1696544;-1.722259521484375;0
1579710525.175704;-2.16265869140625;0
1579710525.1757295;-1.6028823852539062;0
1579710525.175746;0.23148345947265625;0
1579710525.1757615;0.9531686305999756;0
1579710525.1757758;3.2137298583984375;0
1579710525.17579;6.820686340332031;0
1579710525.1758041;10.287620544433594;0
1579710525.1758177;12.971221923828125;0
1579710525.1758316;14.545951843261719;0
1579710525.1758451;14.987991333007812;0
1579710525.17586;14.477813720703125;0
1579710525.2941506;13.161636352539062;0
1579710525.3007414;11.150917053222656;0
1579710525.300761;8.643287658691406;0
1579710525.3007743;5.991241455078125;0
1579710525.3007863;3.7366561889648438;0
1579710525.3007984;2.3754348754882812;0
1579710525.3008094;2.155029296875;0
1579710525.300821;2.9766998291015625;0
1579710525.3008323;4.797370910644531;0
1579710525.3008428;7.9013671875;0
1579710525.3008554;13.212997436523438;0
1579710525.5189033;21.93359375;0
1579710525.5267196;34.779510498046875;0
1579710525.5267463;51.16942596435547;0
1579710525.5270963;68.9436264038086;0
1579710525.5271058;84.75393676757812;0
1579710525.52712;95.17730712890625;0
1579710525.5271266;97.97052764892578;0
1579710525.5271323;92.69009399414062;0
1579710525.527138;80.70352935791016;0
1579710525.5271435;64.39249420166016;0
1579710525.527149;46.254310607910156;0
1579710525.640598;28.229637145996094;0
1579710525.6497316;11.512992858886719;0
1579710525.6497493;-3.2207260131835938;0
1579710525.6497586;-15.481605529785156;0
1579710525.6497662;-24.762184143066406;0
1579710525.6497731;-30.63178253173828;0
1579710525.6497798;-33.01056671142578;0
1579710525.6497867;-32.36847686767578;0
1579710525.6497927;-29.766845703125;0
1579710525.6497998;-26.542129516601562;0
1579710525.6498063;-23.83190155029297;0
1579710525.818033;-22.143943786621094;0
1579710525.8235786;-21.279136657714844;0
1579710525.8236005;-20.56468963623047;0
1579710525.8236158;-19.381187438964844;0
1579710525.8236654;-17.520126342773438;0
1579710525.8236816;-15.295188903808594;0
1579710525.8236961;-13.318656921386719;0
1579710525.8237104;-12.106147766113281;0
1579710525.823724;-11.793403625488281;0
1579710525.8237376;-12.075637817382812;0
1579710525.8237514;-12.444007873535156;0
1579710526.018357;-12.395210266113281;0
1579710526.0286639;-11.770881652832031;0
1579710526.0286832;-10.648361206054688;0
1579710526.028697;-9.288795471191406;0
1579710526.02871;-7.929008483886719;0
1579710526.0287213;-6.703865051269531;0
1579710526.0287337;-5.6373443603515625;0
1579710526.0287454;-4.728874206542969;0
1579710526.0287566;-4.01104736328125;0
1579710526.0287673;-3.52545166015625;0
1579710526.0287786;-3.3256683349609375;0
1579710526.1188972;0.7763795256614685;0
1579710526.1252947;0.7750988602638245;0
1579710526.1253161;0.7776602506637573;0
1579710526.1253314;0.7738181352615356;0
1579710526.125346;0.7750988602638245;0
1579710526.125358;0.7750988602638245;0
1579710526.1612248;-3.3651809692382812;0
1579710526.168218;-3.5656661987304688;0
1579710526.168231;-3.810516357421875;0
1579710526.1682396;-4.042015075683594;0
1579710526.1685393;-4.28802490234375;0
1579710526.1685488;-4.5854034423828125;0
1579710526.168556;-4.925621032714844;0
1579710526.1685627;-5.197273254394531;0
1579710526.1685686;-5.260856628417969;0
1579710526.1685748;-5.009117126464844;0
1579710526.168581;-4.5068817138671875;0
1579710526.240157;29.709999084472656;0
1579710526.245377;29.709999084472656;0
1579710526.2454004;29.709999084472656;0
1579710526.245417;29.709999084472656;0
1579710526.2454326;29.709999084472656;0
1579710526.2454472;29.709999084472656;0
1579710526.2454612;29.709999084472656;0
1579710526.2454748;29.709999084472656;0
1579710526.341015;-4.0051422119140625;0
1579710526.3475132;-3.82745361328125;0
1579710526.347535;-4.340019226074219;0
1579710526.347547;-5.7234649658203125;0
1579710526.3475587;-7.9667510986328125;0
1579710526.3475707;-10.8427734375;0
1579710526.3475814;-14.052696228027344;0
1579710526.3475926;-17.28521728515625;0
1579710526.347607;-20.284339904785156;0
1579710526.3476584;-22.940101623535156;0
1579710526.347674;-25.239112854003906;0
1579710526.498257;-27.279327392578125;0
1579710526.5049233;-29.237640380859375;0
1579710526.5049443;-31.26573944091797;0
1579710526.5049598;-33.44349670410156;0
1579710526.5049741;-35.700584411621094;0
1579710526.5049875;-37.787261962890625;0
1579710526.5050108;-39.324424743652344;0
1579710526.5050254;-40.004486083984375;0
1579710526.5050385;-39.643821716308594;0
1579710526.505052;-38.27428436279297;0
1579710526.5050683;-36.04534912109375;0
1579710526.6862144;-33.130706787109375;0
1579710526.6862295;-29.652183532714844;0
1579710526.6862423;-25.603363037109375;0
1579710526.6862545;-20.97882843017578;0
1579710526.6862667;-15.832359313964844;0
1579710526.6862786;-10.386199951171875;0
1579710526.6862915;-4.960639953613281;0
1579710526.6863046;0.09717559814453125;0
1579710526.6863256;4.5477294921875;0
1579710526.6863391;8.306060791015625;0
1579710526.6863527;11.428611755371094;0
1579710526.8661842;14.087226867675781;0
1579710526.8661928;16.389816284179688;0
1579710526.8661993;18.377826690673828;0
1579710526.8665946;20.00257110595703;0
1579710526.866611;21.20241928100586;0
1579710526.8666232;21.945892333984375;0
1579710526.866635;22.289531707763672;0
1579710526.8666456;22.340736389160156;0
1579710526.866656;22.2294921875;0
1579710526.8666668;22.081157684326172;0
1579710526.8666778;21.94382095336914;0
1579710527.094338;21.84374237060547;0
1579710527.094353;21.74060821533203;0
1579710527.0943651;21.605846405029297;0
1579710527.094378;21.444355010986328;0
1579710527.0943909;21.23896026611328;0
1579710527.0944026;21.00636100769043;0
1579710527.0944147;20.697511672973633;0
1579710527.0944257;20.270097732543945;0
1579710527.094437;19.603958129882812;0
1579710527.0944488;18.657697677612305;0
1579710527.0944602;17.466459274291992;0
1579710527.2000215;16.152812957763672;0
1579710527.2103088;14.892375946044922;0
1579710527.210328;13.798271179199219;0
1579710527.2103364;12.900317192077637;0
1579710527.210344;12.11368179321289;0
1579710527.210351;11.319254875183105;0
1579710527.210358;10.405195236206055;0
1579710527.2103658;9.351850509643555;0
1579710527.2169604;8.21434211730957;0
1579710527.2169745;7.070457935333252;0
1579710527.2169843;6.031556606292725;0
1579710527.3895526;5.0909199714660645;0
1579710527.3965187;4.1833930015563965;0
1579710527.3965397;3.1271471977233887;0
1579710527.3965542;1.783186674118042;0
1579710527.396568;0.08543252944946289;0
1579710527.3965807;-1.85129976272583;0
1579710527.3965926;-3.8487448692321777;0
1579710527.3966033;-5.784215927124023;0
1579710527.3966138;-7.613772392272949;0
1579710527.3966243;-9.560318946838379;0
1579710527.396635;-11.856578826904297;0
1579710527.5779586;-14.704120635986328;0
1579710527.5892465;-18.059288024902344;0
1579710527.5892634;-21.56317710876465;0
1579710527.589281;-24.645118713378906;0
1579710527.5892928;-26.70957374572754;0
1579710527.5893033;-27.334383010864258;0
1579710527.5893147;-26.348365783691406;0
1579710527.5893326;-23.931188583374023;0
1579710527.589343;-20.448820114135742;0
1579710527.5893536;-16.378244400024414;0
1579710527.58969;-12.205570220947266;0
1579710527.6193585;0.7789409756660461;0
1579710527.6269336;0.7840638160705566;0
1579710527.6269474;0.7840638160705566;0
1579710527.6269557;0.7853445410728455;0
1579710527.6269631;0.7815024256706238;0
1579710527.62697;0.7827830910682678;0
1579710527.6908386;-8.307275772094727;0
1579710527.6974685;-4.903472900390625;0
1579710527.6974883;-2.0728492736816406;0
1579710527.6975026;0.2285442352294922;0
1579710527.6975179;2.0881690979003906;0
1579710527.697531;3.547760009765625;0
1579710527.6975439;4.634853363037109;0
1579710527.697557;5.427761077880859;0
1579710527.6975703;6.013248443603516;0
1579710527.6975822;6.553932189941406;0
1579710527.6975958;7.1932220458984375;0
1579710527.8784983;8.036724090576172;0
1579710527.8864152;9.022140502929688;0
1579710527.8864424;10.011981964111328;0
1579710527.8864625;10.823394775390625;0
1579710527.886481;11.371692657470703;0
1579710527.8864965;11.717689514160156;0
1579710527.8865113;12.029884338378906;0
1579710527.8865259;12.496856689453125;0
1579710527.8865411;13.228706359863281;0
1579710527.8865557;14.319110870361328;0
1579710527.8865697;15.760425567626953;0
1579710528.1311848;17.48377227783203;0
1579710528.1382077;19.301250457763672;0
1579710528.1382196;20.98409652709961;0
1579710528.1382272;22.29840850830078;0
1579710528.1382337;23.07471466064453;0
1579710528.1382403;23.299373626708984;0
1579710528.138246;23.05341339111328;0
1579710528.1382527;22.455093383789062;0
1579710528.1382658;21.546794891357422;0
1579710528.138272;20.240936279296875;0
1579710528.1382775;18.37957000732422;0
1579710528.2280748;15.905845642089844;0
1579710528.234884;12.981376647949219;0
1579710528.2349072;9.933631896972656;0
1579710528.2349234;7.195411682128906;0
1579710528.2349381;5.020454406738281;0
1579710528.2349522;3.37005615234375;0
1579710528.2349658;1.984619140625;0
1579710528.2349827;0.5199050903320312;0
1579710528.2349973;-1.2313995361328125;0
1579710528.2350113;-3.2982406616210938;0
1579710528.2350256;-5.4483489990234375;0
1579710528.268926;29.709999084472656;0
1579710528.277257;29.709999084472656;0
1579710528.277274;29.709999084472656;0
1579710528.2772858;29.709999084472656;0
1579710528.2772977;29.709999084472656;0
1579710528.2773097;29.709999084472656;0
1579710528.2773204;29.709999084472656;0
1579710528.2773309;29.709999084472656;0
1579710528.408176;-7.471435546875;0
1579710528.4157677;-9.187416076660156;0
1579710528.4157896;-10.553695678710938;0
1579710528.4158065;-11.71136474609375;0
1579710528.415821;-12.928581237792969;0
1579710528.4158347;-14.508651733398438;0
1579710528.4158485;-16.656997680664062;0
1579710528.4158618;-19.47760772705078;0
1579710528.415875;-22.781234741210938;0
1579710528.4158897;-26.131866455078125;0
1579710528.4159102;-28.83173370361328;0
1579710528.5615623;-30.181724548339844;0
1579710528.571974;-29.677520751953125;0
1579710528.5719845;-27.170333862304688;0
1579710528.571992;-22.981346130371094;0
1579710528.5719981;-17.702651977539062;0
1579710528.572004;-12.0889892578125;0
1579710528.5720162;-6.717742919921875;0
1579710528.5720224;-1.9385986328125;0
1579710528.5720289;2.2073822021484375;0
1579710528.5720348;5.833702087402344;0
1579710528.572041;9.090965270996094;0
1579710528.7401924;12.083229064941406;0
1579710528.7402215;14.782272338867188;0
1579710528.7402358;17.102874755859375;0
1579710528.7402482;18.90052032470703;0
1579710528.7402601;20.0689697265625;0
1579710528.7402825;20.583892822265625;0
1579710528.7402973;20.439064025878906;0
1579710528.7492063;19.723182678222656;0
1579710528.7492177;18.539703369140625;0
1579710528.749225;17.045692443847656;0
1579710528.749233;15.391448974609375;0
1579710528.931274;13.767463684082031;0
1579710528.9312901;12.295654296875;0
1579710528.9313052;11.081459045410156;0
1579710528.9313192;10.162094116210938;0
1579710528.9313338;9.533851623535156;0
1579710528.9313488;9.175155639648438;0
1579710528.9313643;9.009124755859375;0
1579710528.9313781;8.943618774414062;0
1579710528.9313917;8.829856872558594;0
1579710528.9314055;8.617645263671875;0
1579710528.9320455;8.238235473632812;0
1579710529.1357963;7.7404632568359375;0
1579710529.1358047;7.229087829589844;0
1579710529.135812;6.801055908203125;0
1579710529.1358185;6.527214050292969;0
1579710529.1358247;6.3854827880859375;0
1579710529.1358309;6.305137634277344;0
1579710529.1358376;6.1549530029296875;0
1579710529.135844;5.865913391113281;0
1579710529.1358507;5.355934143066406;0
1579710529.1358569;4.611335754394531;0
1579710529.135863;3.5960006713867188;0
1579710529.1358697;0.7763795256614685;0
1579710529.135876;0.7750988602638245;0
1579710529.1358817;0.7699759602546692;0
1579710529.1358874;0.771256685256958;0
1579710529.1358993;0.7661338448524475;0
1579710529.1359072;0.7674145698547363;0
1579710529.2878232;2.2635498046875;0
1579710529.2926044;0.5995025634765625;0
1579710529.2926302;-1.347442626953125;0
1579710529.29265;-3.4556503295898438;0
1579710529.292664;-5.4825897216796875;0
1579710529.2926774;-7.189849853515625;0
1579710529.292689;-8.463264465332031;0
1579710529.2927017;-9.3409423828125;0
1579710529.2927155;-10.073806762695312;0
1579710529.2927284;-11.010795593261719;0
1579710529.2927394;-12.390937805175781;0
1579710529.4303522;-14.253746032714844;0
1579710529.438199;-16.367271423339844;0
1579710529.4382474;-18.335350036621094;0
1579710529.4382727;-19.732200622558594;0
1579710529.4382956;-20.246139526367188;0
1579710529.4383147;-19.761962890625;0
1579710529.4383335;-18.35118865966797;0
1579710529.4383516;-16.25507354736328;0
1579710529.4383671;-13.683456420898438;0
1579710529.4383872;-10.899375915527344;0
1579710529.4384031;-8.037193298339844;0
1579710529.6288512;-5.2146759033203125;0
1579710529.641255;-2.4466781616210938;0
1579710529.6412666;0.2737884521484375;0
1579710529.6412807;2.9536895751953125;0
1579710529.641288;5.5531158447265625;0
1579710529.641294;7.9720458984375;0
1579710529.6413007;10.086540222167969;0
1579710529.6413074;11.771865844726562;0
1579710529.6413136;13.005500793457031;0
1579710529.6413195;13.835479736328125;0
1579710529.6413255;14.362335205078125;0
1579710529.7589698;14.652908325195312;0
1579710529.7689428;14.727264404296875;0
1579710529.7689645;14.553466796875;0
1579710529.768982;14.127426147460938;0
1579710529.7689981;13.543159484863281;0
1579710529.7690136;12.938133239746094;0
1579710529.7690287;12.504661560058594;0
1579710529.7690418;12.325912475585938;0
1579710529.7690544;12.370536804199219;0
1579710529.7690668;12.478569030761719;0
1579710529.769079;12.498504638671875;0
1579710529.9490435;12.376129150390625;0
1579710529.9571571;12.157440185546875;0
1579710529.957178;11.929855346679688;0
1579710529.957194;11.690849304199219;0
1579710529.9572093;11.319526672363281;0
1579710529.9572237;10.629707336425781;0
1579710529.957238;9.50091552734375;0
1579710529.9572515;7.978324890136719;0
1579710529.9572656;6.250404357910156;0
1579710529.957279;4.5857391357421875;0
1579710529.9572926;3.1068267822265625;0
1579710530.1443598;1.7743377685546875;0
1579710530.1527052;0.45555877685546875;0
1579710530.152716;-0.9697036743164062;0
1579710530.1527238;-2.4739227294921875;0
1579710530.1527312;-3.933135986328125;0
1579710530.1527376;-5.196098327636719;0
1579710530.1527433;-6.2391357421875;0
1579710530.152749;-7.09588623046875;0
1579710530.1527576;-7.8824920654296875;0
1579710530.152769;-8.673301696777344;0
1579710530.1527793;-9.457565307617188;0
1579710530.2375937;29.709999084472656;0
1579710530.2512863;29.709999084472656;0
1579710530.2513037;29.709999084472656;0
1579710530.2513156;29.709999084472656;0
1579710530.2513258;29.729999542236328;0
1579710530.251337;29.729999542236328;0
1579710530.251358;29.729999542236328;0
1579710530.251369;29.729999542236328;0
1579710530.2796798;-10.20465087890625;0
1579710530.2903206;-10.912872314453125;0
1579710530.290332;-11.621101379394531;0
1579710530.2903395;-12.311538696289062;0
1579710530.290354;-12.854194641113281;0
1579710530.2903612;-12.97332763671875;0
1579710530.2903678;-12.389801025390625;0
1579710530.2903738;-10.962577819824219;0
1579710530.2903802;-8.782455444335938;0
1579710530.2903862;-6.2035369873046875;0
1579710530.2906933;-3.639404296875;0
1579710530.510601;-1.3975448608398438;0
1579710530.5200021;0.44237518310546875;0
1579710530.5200264;1.9796829223632812;0
1579710530.5200434;3.4056549072265625;0
1579710530.5200596;4.767997741699219;0
1579710530.5200753;5.979194641113281;0
1579710530.52009;6.882438659667969;0
1579710530.5201054;7.343597412109375;0
1579710530.5201204;7.388954162597656;0
1579710530.520135;7.211265563964844;0
1579710530.520149;7.0584564208984375;0
1579710530.6278265;0.7661338448524475;0
1579710530.63335;0.7699759602546692;0
1579710530.6333613;0.7750988602638245;0
1579710530.633369;0.7750988602638245;0
1579710530.6333754;0.7776602506637573;0
1579710530.6333828;0.7763795256614685;0
1579710530.6333904;7.110679626464844;0
1579710530.6333964;7.4000701904296875;0
1579710530.6334095;7.80194091796875;0
1579710530.633416;8.149627685546875;0
1579710530.6334221;8.406547546386719;0
1579710530.6334283;8.594680786132812;0
1579710530.6334345;8.889297485351562;0
1579710530.6334445;9.439231872558594;0
1579710530.6334543;10.252891540527344;0
1579710530.6334636;11.146148681640625;0
1579710530.6334739;11.814140319824219;0
1579710530.8044124;11.946502685546875;0
1579710530.8044333;11.380233764648438;0
1579710530.8044589;10.217689514160156;0
1579710530.804474;8.75152587890625;0
1579710530.804498;7.365936279296875;0
1579710530.8192153;6.3609466552734375;0
1579710530.8192353;5.7294158935546875;0
1579710530.8192494;5.22137451171875;0
1579710530.819261;4.4362640380859375;0
1579710530.8192732;3.0540847778320312;0
1579710530.8192852;0.9804153442382812;0
1579710530.9993565;-1.58367919921875;0
1579710530.9993658;-4.230232238769531;0
1579710530.9993722;-6.554847717285156;0
1579710530.9993782;-8.276969909667969;0
1579710530.999384;-9.427421569824219;0
1579710530.9993904;-10.17596435546875;0
1579710530.999397;-10.750534057617188;0
1579710530.9994037;-11.403228759765625;0
1579710530.9994097;-12.290817260742188;0
1579710530.9994159;-13.545341491699219;0
1579710530.9994216;-15.250358581542969;0
1579710531.2076962;-17.435775756835938;0
1579710531.2077048;-19.92900848388672;0
1579710531.2077112;-22.40003204345703;0
1579710531.2077177;-24.355247497558594;0
1579710531.2077236;-25.354263305664062;0
1579710531.2077296;-25.174942016601562;0
1579710531.2077355;-23.851318359375;0
1579710531.2077413;-21.616775512695312;0
1579710531.207747;-18.735435485839844;0
1579710531.207753;-15.385627746582031;0
1579710531.207759;-11.624732971191406;0
1579710531.329929;-7.466644287109375;0
1579710531.3380868;-3.0366973876953125;0
1579710531.3380976;1.3699493408203125;0
1579710531.3381057;5.358512878417969;0
1579710531.3381124;8.616935729980469;0
1579710531.338119;10.948348999023438;0
1579710531.3381252;12.368888854980469;0
1579710531.3381312;12.983749389648438;0
1579710531.338137;12.955474853515625;0
1579710531.3381426;12.381629943847656;0
1579710531.3381484;11.406486511230469;0
1579710531.4985151;10.2132568359375;0
1579710531.508895;9.047500610351562;0
1579710531.508915;8.217453002929688;0
1579710531.508931;7.905052185058594;0
1579710531.508946;8.123336791992188;0
1579710531.5089598;8.684577941894531;0
1579710531.5089731;9.314529418945312;0
1579710531.5089867;9.776405334472656;0
1579710531.5089998;9.966651916503906;0
1579710531.5090134;9.981033325195312;0
1579710531.5090268;9.888351440429688;0
1579710531.713022;9.730552673339844;0
1579710531.7184303;9.386001586914062;0
1579710531.7184486;8.690132141113281;0
1579710531.7184646;7.5418243408203125;0
1579710531.7184777;5.966361999511719;0
1579710531.7184892;4.1191558837890625;0
1579710531.7184997;2.1618499755859375;0
1579710531.718512;0.21094512939453125;0
1579710531.7185237;-1.703338623046875;0
1579710531.718536;-3.611236572265625;0
1579710531.7185488;-5.539421081542969;0
1579710531.8193572;-7.421112060546875;0
1579710531.825364;-9.175430297851562;0
1579710531.8253849;-10.761947631835938;0
1579710531.8254004;-12.209075927734375;0
1579710531.825414;-13.683074951171875;0
1579710531.8254275;-15.361152648925781;0
1579710531.8254404;-17.320755004882812;0
1579710531.8259747;-19.377426147460938;0
1579710531.8259923;-21.174285888671875;0
1579710531.8260071;-22.186981201171875;0
1579710531.8260212;-22.000045776367188;0
1579710532.0080469;-20.458946228027344;0
1579710532.0210626;-17.703575134277344;0
1579710532.021079;-14.202377319335938;0
1579710532.0210905;-10.460601806640625;0
1579710532.0211015;-6.910346984863281;0
1579710532.0211134;-3.7265853881835938;0
1579710532.0211246;-0.8780975341796875;0
1579710532.0211356;1.7754898071289062;0
1579710532.021146;4.3564605712890625;0
1579710532.0211573;0.8594143390655518;0
1579710532.0211678;6.796913146972656;0
1579710532.0211787;8.984771728515625;0
1579710532.1291788;0.7725374102592468;0
1579710532.1361794;0.7750988602638245;0
1579710532.1361902;0.7699759602546692;0
1579710532.1361973;0.7661338448524475;0
1579710532.136204;0.7635723948478699;0
1579710532.13621;0.7648531198501587;0
1579710532.1883807;10.706764221191406;0
1579710532.2005067;11.868370056152344;0
1579710532.2005353;12.434791564941406;0
1579710532.2005496;12.501487731933594;0
1579710532.2005637;12.274848937988281;0
1579710532.200576;11.967575073242188;0
1579710532.200589;11.738784790039062;0
1579710532.200601;11.594772338867188;0
1579710532.2006128;11.480491638183594;0
1579710532.200625;11.287406921386719;0
1579710532.2006366;10.938209533691406;0
1579710532.2287323;29.729999542236328;0
1579710532.2351558;29.729999542236328;0
1579710532.2351847;29.729999542236328;0
1579710532.2352016;29.729999542236328;0
1579710532.235217;29.709999084472656;0
1579710532.2352316;29.709999084472656;0
1579710532.2352476;29.709999084472656;0
1579710532.2352629;29.709999084472656;0
1579710532.3523383;10.469223022460938;0
1579710532.3598247;9.936233520507812;0
1579710532.3598425;9.379287719726562;0
1579710532.3598557;8.752922058105469;0
1579710532.3598673;7.9403228759765625;0
1579710532.359878;6.817512512207031;0
1579710532.3598902;5.431129455566406;0
1579710532.359901;3.9581069946289062;0
1579710532.3599122;2.6506195068359375;0
1579710532.3599222;1.7147445678710938;0
1579710532.360368;1.118621826171875;0
1579710532.532952;0.6910247802734375;0
1579710532.5411246;0.1560516357421875;0
1579710532.5411448;-0.690216064453125;0
1579710532.5411637;-1.9235763549804688;0
1579710532.5411801;-3.4245986938476562;0
1579710532.5411952;-4.986785888671875;0
1579710532.541209;-6.411460876464844;0
1579710532.5412223;-7.504425048828125;0
1579710532.5412364;-8.298545837402344;0
1579710532.5412495;-8.929183959960938;0
1579710532.541263;-9.701545715332031;0
1579710532.679922;-10.894027709960938;0
1579710532.6888409;-12.627731323242188;0
1579710532.6888585;-14.866935729980469;0
1579710532.6888816;-17.353500366210938;0
1579710532.6888943;-19.790603637695312;0
1579710532.6889067;-21.768844604492188;0
1579710532.6889184;-23.038116455078125;0
1579710532.6889296;-23.388206481933594;0
1579710532.688941;-22.702850341796875;0
1579710532.6889522;-20.933090209960938;0
1579710532.6889637;-18.121604919433594;0
1579710532.864624;-14.458648681640625;0
1579710532.8646448;-10.234031677246094;0
1579710532.8769224;-5.826774597167969;0
1579710532.8769453;-1.52825927734375;0
1579710532.8769634;2.4113845825195312;0
1579710532.876978;5.8804931640625;0
1579710532.8769946;0.7656600475311279;0
1579710532.877009;8.82952880859375;0
1579710532.8770244;11.257011413574219;0
1579710532.8770382;13.173477172851562;0
1579710532.8770537;14.596504211425781;0
1579710532.877203;15.548179626464844;0
1579710533.0559616;16.056533813476562;0
1579710533.0559778;16.15386199951172;0
1579710533.0559905;15.870811462402344;0
1579710533.056005;15.339065551757812;0
1579710533.056017;14.738677978515625;0
1579710533.056029;14.250717163085938;0
1579710533.0560415;14.085784912109375;0
1579710533.0560653;14.30792236328125;0
1579710533.0560882;14.85894775390625;0
1579710533.0561006;15.557693481445312;0
1579710533.0561125;16.159393310546875;0
1579710533.285251;16.4681396484375;0
1579710533.2852602;16.460372924804688;0
1579710533.2852669;16.257797241210938;0
1579710533.2852733;15.97882080078125;0
1579710533.2852795;15.73065185546875;0
1579710533.2855675;15.437530517578125;0
1579710533.2855756;14.93060302734375;0
1579710533.285582;13.978485107421875;0
1579710533.2855878;12.443588256835938;0
1579710533.2855935;10.39666748046875;0
1579710533.2856002;8.051132202148438;0
1579710533.397792;5.724822998046875;0
1579710533.404675;3.607513427734375;0
1579710533.404687;1.7396392822265625;0
1579710533.4046955;-0.0055694580078125;0
1579710533.4047022;-1.846466064453125;0
1579710533.4047086;-3.9289093017578125;0
1579710533.4047143;-6.2879638671875;0
1579710533.4047198;-8.80316162109375;0
1579710533.4047256;-11.2803955078125;0
1579710533.4047313;-13.523666381835938;0
1579710533.404737;-15.4244384765625;0
1579710533.5803812;-17.008987426757812;0
1579710533.5882576;-18.481307983398438;0
1579710533.588275;-20.1055908203125;0
1579710533.588289;-22.162979125976562;0
1579710533.588302;-24.806930541992188;0
1579710533.5883143;-27.904937744140625;0
1579710533.5883272;-31.059051513671875;0
1579710533.588339;-33.67012023925781;0
1579710533.588351;-35.17799377441406;0
1579710533.5883641;-35.25199890136719;0
1579710533.5883832;-33.97425842285156;0
1579710533.6191735;0.762291669845581;0
1579710533.6275346;0.7635723948478699;0
1579710533.6275663;0.761011004447937;0
1579710533.6275818;0.761011004447937;0
1579710533.6275957;0.7584495544433594;0
1579710533.6276102;0.7571688294410706;0
1579710533.7377913;-31.709808349609375;0
1579710533.7439427;-28.9927978515625;0
1579710533.7439704;-26.26617431640625;0
1579710533.7439866;-23.681777954101562;0
1579710533.7439988;-21.187942504882812;0
1579710533.7440107;-18.548614501953125;0
1579710533.7440221;-15.584991455078125;0
1579710533.7440336;-12.2333984375;0
1579710533.7440453;-8.628082275390625;0
1579710533.7440524;-5.075958251953125;0
1579710533.7440593;-1.9888153076171875;0
1579710533.8783576;0.1876068115234375;0
1579710533.8874764;1.2547760009765625;0
1579710533.8874948;1.45587158203125;0
1579710533.887519;1.7705535888671875;0
1579710533.887534;0.8125371932983398;0
1579710533.8875468;3.8629302978515625;0
1579710533.888166;9.726943969726562;0
1579710533.888181;20.941848754882812;0
1579710533.8881936;37.84529113769531;0
1579710533.8882053;59.12110900878906;0
1579710533.8882277;81.88038635253906;0
1579710533.888242;102.46511840820312;0
1579710534.1084197;117.34603881835938;0
1579710534.117993;124.19429016113281;0
1579710534.1180148;122.30294799804688;0
1579710534.1180236;112.59278869628906;0
1579710534.1180308;97.18891906738281;0
1579710534.1180372;78.76614379882812;0
1579710534.1180432;59.95726013183594;0
1579710534.1180487;42.8165283203125;0
1579710534.118055;28.66754150390625;0
1579710534.118061;17.91412353515625;0
1579710534.118067;10.31317138671875;0
1579710534.2776468;5.1826019287109375;0
1579710534.285304;1.661773681640625;0
1579710534.2853165;-0.9969406127929688;0
1579710534.2853248;-3.4478988647460938;0
1579710534.285332;-6.072669982910156;0
1579710534.2853382;-9.133583068847656;0
1579710534.2853446;-12.585624694824219;0
1579710534.2853506;-16.210098266601562;0
1579710534.2853565;-19.570999145507812;0
1579710534.285363;-22.16912841796875;0
1579710534.2853692;-23.778770446777344;0
1579710534.2853756;29.709999084472656;0
1579710534.2853818;29.709999084472656;0
1579710534.2853878;29.709999084472656;0
1579710534.2853935;29.709999084472656;0
1579710534.2853992;29.729999542236328;0
1579710534.285405;29.729999542236328;0
1579710534.2854106;29.729999542236328;0
1579710534.2854166;29.729999542236328;0
1579710534.4189217;-24.40154266357422;0
1579710534.4311159;-24.424530029296875;0
1579710534.4311314;-24.343963623046875;0
1579710534.431145;-24.64239501953125;0
1579710534.4311566;-25.572792053222656;0
1579710534.4311683;-27.11492919921875;0
1579710534.4311793;-29.090370178222656;0
1579710534.431193;-31.244422912597656;0
1579710534.431204;-33.46099090576172;0
1579710534.431215;-35.67633056640625;0
1579710534.4312258;-37.924476623535156;0
1579710534.5981286;-40.14125061035156;0
1579710534.6050062;-42.18275451660156;0
1579710534.6050184;-43.70568084716797;0
1579710534.605026;-44.32781219482422;0
1579710534.6054332;-43.76415252685547;0
1579710534.6054428;-41.86809539794922;0
1579710534.6054494;-38.81575012207031;0
1579710534.6054604;-34.93907928466797;0
1579710534.6054718;-30.681480407714844;0
1579710534.605478;-26.3856201171875;0
1579710534.605484;-22.283050537109375;0
1579710534.7381399;-18.41265106201172;0
1579710534.7451081;-14.662246704101562;0
1579710534.7451262;-10.990936279296875;0
1579710534.745138;-7.344657897949219;0
1579710534.7451491;-3.8453598022460938;0
1579710534.7451599;-0.6392135620117188;0
1579710534.74517;2.0838775634765625;0
1579710534.74518;4.221870422363281;0
1579710534.7451992;5.768013000488281;0
1579710534.7452106;1.0000457763671875;0
1579710534.745222;6.7292327880859375;0
1579710534.7452338;7.224090576171875;0
1579710534.9391108;7.362998962402344;0
1579710534.9391274;7.325553894042969;0
1579710534.939142;7.2700347900390625;0
1579710534.9391558;7.3430633544921875;0
1579710534.939168;7.64727783203125;0
1579710534.9391818;8.180976867675781;0
1579710534.939196;8.891883850097656;0
1579710534.9392095;9.620109558105469;0
1579710534.9392226;10.253158569335938;0
1579710534.939236;10.679039001464844;0
1579710534.939248;10.866958618164062;0
1579710535.1241376;10.790245056152344;0
1579710535.1241515;10.468528747558594;0
1579710535.1241627;9.94586181640625;0
1579710535.1241739;9.216072082519531;0
1579710535.124185;8.339691162109375;0
1579710535.1241958;7.320686340332031;0
1579710535.124262;6.212493896484375;0
1579710535.1242774;4.975730895996094;0
1579710535.1242888;3.6090774536132812;0
1579710535.1242995;2.0662307739257812;0
1579710535.12431;0.32684326171875;0
1579710535.1243212;0.7546073794364929;0
1579710535.1243322;0.7520459890365601;0
1579710535.1243427;0.7520459890365601;0
1579710535.1243536;0.7456424236297607;0
1579710535.1243641;0.7507652640342712;0
1579710535.1243749;0.7494845390319824;0
1579710535.2808459;-1.5067672729492188;0
1579710535.28086;-3.3505325317382812;0
1579710535.2808712;-5.050270080566406;0
1579710535.280882;-6.5568695068359375;0
1579710535.281417;-7.886421203613281;0
1579710535.2814329;-9.145088195800781;0
1579710535.2814481;-10.455070495605469;0
1579710535.2814615;-11.912139892578125;0
1579710535.2814748;-13.671737670898438;0
1579710535.2814882;-15.791252136230469;0
1579710535.2815015;-18.330787658691406;0
1579710535.5291657;-21.193435668945312;0
1579710535.5350602;-24.14037322998047;0
1579710535.5350778;-26.747695922851562;0
1579710535.5350912;-28.533973693847656;0
1579710535.5351036;-29.125335693359375;0
1579710535.5351143;-28.295654296875;0
1579710535.5351253;-26.1767578125;0
1579710535.535136;-23.054916381835938;0
1579710535.5351465;-19.333358764648438;0
1579710535.5351572;-15.353836059570312;0
1579710535.5351682;-11.371238708496094;0
1579710535.6179175;-7.5564422607421875;0
1579710535.6274283;-3.9900894165039062;0
1579710535.627456;-0.7181549072265625;0
1579710535.627467;2.2469635009765625;0
1579710535.6274755;4.9131622314453125;0
1579710535.627483;7.302726745605469;0
1579710535.6274896;9.428382873535156;0
1579710535.6274967;11.282699584960938;0
1579710535.6275039;12.814643859863281;0
1579710535.6275103;13.930458068847656;0
1579710535.627517;14.591751098632812;0
1579710535.8279123;14.790565490722656;0
1579710535.8324995;14.638557434082031;0
1579710535.8325102;14.317138671875;0
1579710535.8325222;14.026283264160156;0
1579710535.8325312;13.921096801757812;0
1579710535.8325374;14.030601501464844;0
1579710535.8325438;14.258155822753906;0
1579710535.83255;14.387519836425781;0
1579710535.8325558;14.2310791015625;0
1579710535.8325617;13.661087036132812;0
1579710535.8325746;12.698707580566406;0
1579710536.011748;11.474700927734375;0
1579710536.0190525;10.111053466796875;0
1579710536.019064;8.666328430175781;0
1579710536.0190713;7.048362731933594;0
1579710536.0190778;5.112571716308594;0
1579710536.019084;2.6653900146484375;0
1579710536.0190916;-0.34906768798828125;0
1579710536.0190983;-3.8685302734375;0
1579710536.0191045;-7.697975158691406;0
1579710536.0191107;-11.561912536621094;0
1579710536.0191166;-15.259529113769531;0
1579710536.1383598;-18.734481811523438;0
1579710536.1439598;-22.078773498535156;0
1579710536.143981;-25.568931579589844;0
1579710536.1439958;-29.569198608398438;0
1579710536.1440084;-34.41270446777344;0
1579710536.1440215;-40.279754638671875;0
1579710536.1440344;-47.21739196777344;0
1579710536.1440458;-55.3134765625;0
1579710536.1440575;-64.83692932128906;0
1579710536.1440692;-76.15394592285156;0
1579710536.1440825;-89.36422729492188;0
1579710536.2413;29.729999542236328;0
1579710536.2491856;29.729999542236328;0
1579710536.2492135;29.729999542236328;0
1579710536.2492268;29.729999542236328;0
1579710536.2492383;29.729999542236328;0
1579710536.2492497;29.729999542236328;0
1579710536.249262;29.729999542236328;0
1579710536.249273;29.729999542236328;0
1579710536.3181891;-103.81182861328125;0
1579710536.3250647;-117.70803833007812;0
1579710536.3251016;-128.20852661132812;0
1579710536.3251262;-132.1043243408203;0
1579710536.3251438;-126.94369506835938;0
1579710536.3251586;-112.05632019042969;0
1579710536.325174;-88.95172119140625;0
1579710536.32519;-60.81761169433594;0
1579710536.3252056;-31.496978759765625;0
1579710536.3252206;-4.0547332763671875;0
1579710536.325237;19.930038452148438;0
1579710536.4694562;40.340301513671875;0
1579710536.4784286;57.86256408691406;0
1579710536.4784522;72.99241638183594;0
1579710536.47847;85.64987182617188;0
1579710536.4784865;95.32183837890625;0
1579710536.4785016;101.83116149902344;0
1579710536.478518;105.88433837890625;0
1579710536.4785323;109.01994323730469;0
1579710536.4785464;112.71664428710938;0
1579710536.4785602;117.29440307617188;0
1579710536.478574;121.44570922851562;0
1579710536.6467888;0.7546073794364929;0
1579710536.6467981;0.7469231486320496;0
1579710536.6468058;0.7482038140296936;0
1579710536.6468124;0.7418002486228943;0
1579710536.6468186;0.7418002486228943;0
1579710536.646825;0.7418002486228943;0
1579710536.6582415;123.14628601074219;0
1579710536.6659346;121.63546752929688;0
1579710536.665963;118.91114807128906;0
1579710536.6659787;119.65863037109375;0
1579710536.6666088;128.887939453125;0
1579710536.666627;148.4673309326172;0
1579710536.6666417;174.895751953125;0
1579710536.6666555;199.97923278808594;0
1579710536.666669;214.7039337158203;0
1579710536.6666827;213.90789794921875;0
1579710536.6666956;199.35667419433594;0
1579710536.8084998;178.7334747314453;0
1579710536.815891;161.4039764404297;0
1579710536.8159041;153.6844940185547;0
1579710536.8159127;156.22434997558594;0
1579710536.8159196;165.16152954101562;0
1579710536.8159263;175.49331665039062;0
1579710536.815934;184.5115966796875;0
1579710536.8159404;192.36508178710938;0
1579710536.8159466;200.36013793945312;0
1579710536.815966;208.1370849609375;0
1579710536.8159788;212.2420196533203;0
1579710537.0287807;207.27169799804688;0
1579710537.036215;188.57205200195312;0
1579710537.0362332;154.89544677734375;0
1579710537.036246;109.14168548583984;0
1579710537.036257;57.14347839355469;0
1579710537.0362685;5.156105041503906;0
1579710537.03628;-42.0883674621582;0
1579710537.0362904;-82.32377624511719;0
1579710537.0363016;-115.22570037841797;0
1579710537.0363119;-141.48171997070312;0
1579710537.036322;-161.96743774414062;0
1579710537.1528766;-177.2099151611328;0
1579710537.1528904;-187.38706970214844;0
1579710537.1529095;-192.29519653320312;0
1579710537.1529195;-191.60646057128906;0
1579710537.15293;-185.17506408691406;0
1579710537.152941;-173.5864715576172;0
1579710537.1529517;-158.51564025878906;0
1579710537.1529632;-142.6120147705078;0
1579710537.1529737;-128.9471435546875;0
1579710537.1529846;-119.89210510253906;0
1579710537.1529963;-116.436279296875;0
1579710537.399776;-117.98985290527344;0
1579710537.3997846;-122.94792175292969;0
1579710537.3997915;-129.5894775390625;0
1579710537.3997974;-136.7811737060547;0
1579710537.3998034;-144.01573181152344;0
1579710537.3998094;-150.94541931152344;0
1579710537.3998148;-156.83860778808594;0
1579710537.399821;-160.3232421875;0
1579710537.3998268;-159.78672790527344;0
1579710537.39984;-153.9799346923828;0
1579710537.399846;-142.6836395263672;0
1579710537.5208545;-126.9420166015625;0
1579710537.5282466;-108.71591186523438;0
1579710537.5282664;-90.25973510742188;0
1579710537.5282803;-73.40278625488281;0
1579710537.528293;-59.26313781738281;0
1579710537.5283062;-48.02137756347656;0
1579710537.5283186;-39.270294189453125;0
1579710537.5283406;-32.31243896484375;0
1579710537.528351;-26.417877197265625;0
1579710537.5283616;-21.0426025390625;0
1579710537.5283709;-15.847442626953125;0
1579710537.7005622;-10.719207763671875;0
1579710537.7074482;-5.69073486328125;0
1579710537.7074726;-1.01141357421875;0
1579710537.7074847;3.0035400390625;0
1579710537.7074957;5.9998779296875;0
1579710537.7075064;7.86126708984375;0
1579710537.7075174;8.93145751953125;0
1579710537.707528;9.883544921875;0
1579710537.7075424;11.604766845703125;0
1579710537.7075539;14.709991455078125;0
1579710537.7075644;19.265869140625;0
1579710537.8777502;24.66497802734375;0
1579710537.8842766;29.9500732421875;0
1579710537.8842893;34.205596923828125;0
1579710537.8842964;36.98583984375;0
1579710537.8843038;38.470306396484375;0
1579710537.8843105;39.238433837890625;0
1579710537.8843174;39.924835205078125;0
1579710537.8843288;40.79327392578125;0
1579710537.8843389;41.702880859375;0
1579710537.884345;42.209075927734375;0
1579710537.8843508;41.8270263671875;0
1579710538.0177703;40.263885498046875;0
1579710538.0332952;37.49334716796875;0
1579710538.0333126;33.70831298828125;0
1579710538.0333276;29.156158447265625;0
1579710538.0333476;24.051239013671875;0
1579710538.0333588;18.5;0
1579710538.0333698;12.49554443359375;0
1579710538.0333803;6.003448486328125;0
1579710538.0333917;-0.88836669921875;0
1579710538.0334027;-8.006561279296875;0
1579710538.033414;-15.131500244140625;0
1579710538.1307633;0.7482038140296936;0
1579710538.1350334;0.7533267140388489;0
1579710538.1350498;0.7558881044387817;0
1579710538.1350617;0.761011004447937;0
1579710538.1350741;0.7661338448524475;0
1579710538.135094;0.7686952352523804;0
1579710538.1980646;-22.087066650390625;0
1579710538.2069607;-28.8521728515625;0
1579710538.2069836;-35.61253356933594;0
1579710538.207;-42.64680480957031;0
1579710538.2070146;-50.24275207519531;0
1579710538.2070282;-58.49760437011719;0
1579710538.2070425;-67.23606872558594;0
1579710538.2070572;-75.97393798828125;0
1579710538.2070708;-83.96421813964844;0
1579710538.2070842;-90.32827758789062;0
1579710538.2070985;-94.20195007324219;0
1579710538.2389126;29.709999084472656;0
1579710538.2441242;29.709999084472656;0
1579710538.2441473;29.709999084472656;0
1579710538.2441645;29.709999084472656;0
1579710538.244179;29.75;0
1579710538.244193;29.75;0
1579710538.2442067;29.75;0
1579710538.2442212;29.75;0
1579710538.3785374;-94.99562072753906;0
1579710538.3929846;-92.469482421875;0
1579710538.3930097;-86.876953125;0
1579710538.393029;-78.88278198242188;0
1579710538.3930435;-69.52888488769531;0
1579710538.393057;-59.935699462890625;0
1579710538.3930717;-51.10906982421875;0
1579710538.3930845;-43.73512268066406;0
1579710538.3930974;-38.06565856933594;0
1579710538.3931096;-33.87171936035156;0
1579710538.3931215;-30.403549194335938;0
1579710539.0138319;-26.52069091796875;0
1579710539.0138488;-20.9041748046875;0
1579710539.0138605;-12.4881591796875;0
1579710539.0138717;-0.94049072265625;0
1579710539.0138853;13.100006103515625;0
1579710539.013898;28.127960205078125;0
1579710539.013909;42.2274169921875;0
1579710539.0139208;53.76167297363281;0
1579710539.0139315;61.9169921875;0
1579710539.0139434;66.82786560058594;0
1579710539.0139554;69.221435546875;0
1579710539.0140371;69.95803833007812;0
1579710539.0140488;69.54296875;0
1579710539.014061;68.11862182617188;0
1579710539.0140736;65.64688110351562;0
1579710539.0140858;62.27543640136719;0
1579710539.0140977;58.41766357421875;0
1579710539.0141091;54.63426208496094;0
1579710539.0141225;51.22882080078125;0
1579710539.0141342;48.031402587890625;0
1579710539.0141478;44.453826904296875;0
1579710539.0141602;39.83265686035156;0
1579710539.0154657;33.843902587890625;0
1579710539.0154748;26.68182373046875;0
1579710539.0154812;19.062484741210938;0
1579710539.0154877;11.930587768554688;0
1579710539.0154939;6.152923583984375;0
1579710539.0154996;2.20721435546875;0
1579710539.0155053;0.12457275390625;0
1579710539.0155108;-0.496551513671875;0
1579710539.0155172;-0.4183807373046875;0
1579710539.0155225;-0.504852294921875;0
1579710539.0155287;-1.5589752197265625;0
1579710539.0580752;-4.025482177734375;0
1579710539.065905;-7.7638397216796875;0
1579710539.0659218;-12.063278198242188;0
1579710539.065935;-15.937835693359375;0
1579710539.065947;-18.527511596679688;0
1579710539.0659585;-19.417327880859375;0
1579710539.0659702;-18.827713012695312;0
1579710539.0659811;-17.3763427734375;0
1579710539.0659926;-15.778663635253906;0
1579710539.0660043;-14.492485046386719;0
1579710539.0660152;-13.652496337890625;0
1579710539.2457213;-13.24188232421875;0
1579710539.2457428;-13.221611022949219;0
1579710539.2457604;-13.665603637695312;0
1579710539.2457728;-14.678665161132812;0
1579710539.2457798;-16.338348388671875;0
1579710539.2457862;-18.507308959960938;0
1579710539.245792;-20.95885467529297;0
1579710539.2457983;-23.45153045654297;0
1579710539.2458043;-25.918441772460938;0
1579710539.2458103;-28.467849731445312;0
1579710539.2458162;-31.254959106445312;0
1579710539.4561536;-34.316436767578125;0
1579710539.4561987;-37.46575164794922;0
1579710539.4562268;-40.425697326660156;0
1579710539.4562578;-42.88782501220703;0
1579710539.4562862;-44.77336120605469;0
1579710539.456319;-46.197914123535156;0
1579710539.4563296;-47.3575439453125;0
1579710539.4563403;-48.37541198730469;0
1579710539.4563508;-49.108856201171875;0
1579710539.456362;-49.121795654296875;0
1579710539.4563737;-47.75624084472656;0
1579710539.6079307;-44.36894989013672;0
1579710539.615213;-38.49984359741211;0
1579710539.615252;-30.121540069580078;0
1579710539.6152663;-19.67633819580078;0
1579710539.615275;-7.9777374267578125;0
1579710539.615286;3.9796524047851562;0
1579710539.6152947;15.2823486328125;0
1579710540.4533892;17.846595764160156;0
1579710540.4534152;17.16753387451172;0
1579710540.4546347;16.341278076171875;0
1579710540.4546547;15.433692932128906;0
1579710540.4546702;14.641738891601562;0
1579710540.4546947;14.056190490722656;0
1579710540.4547079;13.522544860839844;0
1579710540.4547215;12.761802673339844;0
1579710540.4547346;11.562088012695312;0
1579710540.4547489;9.955398559570312;0
1579710540.454763;8.143402099609375;0
1579710540.4574997;6.4158935546875;0
1579710540.457524;4.939117431640625;0
1579710540.4575384;3.6864547729492188;0
1579710540.4575596;2.48388671875;0
1579710540.4575717;1.1685943603515625;0
1579710540.4575856;-0.3060150146484375;0
1579710540.457598;-1.915283203125;0
1579710540.4576101;-3.5512619018554688;0
1579710540.457622;-5.136863708496094;0
1579710540.4576337;-6.719642639160156;0
1579710540.4576564;-8.428382873535156;0
1579710540.5912204;-10.386886596679688;0
1579710540.5963304;-12.660896301269531;0
1579710540.5963464;-15.172935485839844;0
1579710540.596363;-17.639060974121094;0
1579710540.596375;-19.679832458496094;0
1579710540.596384;-20.840858459472656;0
1579710540.5963929;-20.73974609375;0
1579710540.5964015;-19.27696990966797;0
1579710540.5964093;-16.649948120117188;0
1579710540.5964174;-13.322456359863281;0
1579710540.5964267;-9.877151489257812;0
1579710540.7954898;-6.761146545410156;0
1579710540.803096;-4.123779296875;0
1579710540.8031137;-1.82086181640625;0
1579710540.8031213;0.37701416015625;0
1579710540.8031297;2.6662063598632812;0
1579710540.8031363;5.0060882568359375;0
1579710540.8031425;7.147247314453125;0
1579710540.8031487;8.813987731933594;0
1579710540.8031547;9.892120361328125;0
1579710540.8031604;10.627197265625;0
1579710540.8031664;11.536613464355469;0
1579710540.9379818;13.220733642578125;0
1579710540.9432106;16.036766052246094;0
1579710540.9432292;19.876495361328125;0
1579710540.9432547;24.15009307861328;0
1579710540.943267;28.038246154785156;0
1579710540.9432776;30.80059051513672;0
1579710540.9432898;32.083770751953125;0
1579710540.943818;32.18907165527344;0
1579710540.943828;31.902381896972656;0
1579710540.9438348;32.18281555175781;0
1579710540.9438412;33.718727111816406;0
1579710541.116887;0.8429766893386841;0
1579710541.1169014;0.8493802547454834;0
1579710541.1169133;0.8468188047409058;0
1579710541.1169248;0.8429766893386841;0
1579710541.1169357;0.8378538489341736;0
1579710541.1169477;0.8314502239227295;0
1579710541.1222448;36.638511657714844;0
1579710541.1222563;40.431488037109375;0
1579710541.122264;44.25321960449219;0
1579710541.1222703;47.32063293457031;0
1579710541.1222765;49.289649963378906;0
1579710541.1222825;50.44389343261719;0
1579710541.1222885;51.449554443359375;0
1579710541.1222944;53.07344055175781;0
1579710541.1223004;55.787437438964844;0
1579710541.122308;59.692039489746094;0
1579710541.1223192;64.47502899169922;0
1579710541.307452;69.57603454589844;0
1579710541.3074708;74.4295654296875;0
1579710541.3074887;78.5464096069336;0
1579710541.307504;81.74656677246094;0
1579710541.3075185;84.26102447509766;0
1579710541.3075337;87.0313949584961;0
1579710541.307548;91.50553131103516;0
1579710541.3075624;99.03160858154297;0
1579710541.3075774;109.77188873291016;0
1579710541.3075917;121.69107055664062;0
1579710541.3076057;130.31942749023438;0
1579710541.5326834;129.53659057617188;0
1579710541.532702;113.35621643066406;0
1579710541.5327194;77.8501968383789;0
1579710541.5327322;22.954896926879883;0
1579710541.532747;-47.0547981262207;0
1579710541.532758;-124.27118682861328;0
1579710541.5327702;-198.91043090820312;0
1579710541.532781;-261.5871887207031;0
1579710541.5327914;-305.39434814453125;0
1579710541.5328038;-327.2244567871094;0
1579710541.5328171;-327.9531555175781;0
1579710541.6479673;-311.6195373535156;0
1579710541.653923;-283.7293701171875;0
1579710541.653944;-249.6995391845703;0
1579710541.6539612;-213.6972198486328;0
1579710541.6539757;-178.28842163085938;0
1579710541.65399;-144.84181213378906;0
1579710541.6540053;-114.12205505371094;0
1579710541.6540198;-86.69102478027344;0
1579710541.654617;-62.817283630371094;0
1579710541.654633;-42.301795959472656;0
1579710541.654646;-24.33550453186035;0
1579710541.8285775;-7.893387317657471;0
1579710541.8346393;7.695833206176758;0
1579710541.8346705;22.441707611083984;0
1579710541.83469;35.5953254699707;0
1579710541.8347056;46.05051040649414;0
1579710541.8347204;52.97283172607422;0
1579710541.8347347;56.38279342651367;0
1579710541.8347487;57.1365852355957;0
1579710541.834763;56.665096282958984;0
1579710541.8347778;56.318695068359375;0
1579710541.8347921;56.79893493652344;0
1579710542.0100055;58.06583023071289;0
1579710542.0173795;59.35725784301758;0
1579710542.0173953;59.759605407714844;0
1579710542.0174031;58.66909408569336;0
1579710542.0174093;56.10487365722656;0
1579710542.0174153;52.57740020751953;0
1579710542.017422;48.81752395629883;0
1579710542.0174284;45.379947662353516;0
1579710542.0174353;42.39849853515625;0
1579710542.0174415;39.681312561035156;0
1579710542.0174475;36.70774841308594;0
1579710542.1283863;33.007049560546875;0
1579710542.1358955;28.288593292236328;0
1579710542.135913;22.597930908203125;0
1579710542.1359255;16.284011840820312;0
1579710542.1359367;9.858333587646484;0
1579710542.1359475;3.8848190307617188;0
1579710542.1359584;-1.2722816467285156;0
1579710542.1359692;-5.350482940673828;0
1579710542.1359787;-8.343914031982422;0
1579710542.1359887;-10.371044158935547;0
1579710542.1359985;-11.612499237060547;0
1579710542.2382843;29.729999542236328;0
1579710542.2502012;29.729999542236328;0
1579710542.2502239;29.729999542236328;0
1579710542.250238;29.729999542236328;0
1579710542.2502606;29.729999542236328;0
1579710542.2502735;29.729999542236328;0
1579710542.2502885;29.729999542236328;0
1579710542.2503033;29.729999542236328;0
1579710542.3182619;-12.274730682373047;0
1579710542.3247654;-12.502113342285156;0
1579710542.32478;-12.340278625488281;0
1579710542.324789;-11.693023681640625;0
1579710542.3247964;-10.444210052490234;0
1579710542.3248036;-8.353019714355469;0
1579710542.3248107;-5.329387664794922;0
1579710542.3253307;-1.4125900268554688;0
1579710542.3253589;3.10638427734375;0
1579710542.325379;7.6812896728515625;0
1579710542.3253932;11.731689453125;0
1579710542.5180197;14.744979858398438;0
1579710542.528969;16.558006286621094;0
1579710542.5289881;17.33533477783203;0
1579710542.5290036;17.571975708007812;0
1579710542.5290222;17.823204040527344;0
1579710542.529035;18.47844696044922;0
1579710542.5290465;19.636138916015625;0
1579710542.5290577;21.078575134277344;0
1579710542.529069;22.498558044433594;0
1579710542.5290804;23.59607696533203;0
1579710542.5290911;24.30554962158203;0
1579710542.628138;0.826327383518219;0
1579710542.638796;0.8237659931182861;0
1579710542.6388133;0.8148009777069092;0
1579710542.6388233;0.8122395277023315;0
1579710542.6388295;0.8083974123001099;0
1579710542.6388366;0.8096781373023987;0
1579710542.6683612;24.652503967285156;0
1579710542.672396;24.79840087890625;0
1579710542.6724083;24.82398223876953;0
1579710542.6724157;24.687774658203125;0
1579710542.6724222;24.354385375976562;0
1579710542.672429;23.81805419921875;0
1579710542.6724353;23.25592041015625;0
1579710542.6724498;22.91449737548828;0
1579710542.6724608;22.982383728027344;0
1579710542.672472;23.403480529785156;0
1579710542.672482;23.878643035888672;0
1579710542.8479705;23.93783950805664;0
1579710542.8551874;23.194664001464844;0
1579710542.8552177;21.592727661132812;0
1579710542.8552358;19.40487289428711;0
1579710542.8552558;17.153926849365234;0
1579710542.855273;15.306922912597656;0
1579710542.8552887;14.004295349121094;0
1579710542.8553042;13.015022277832031;0
1579710542.855319;11.907207489013672;0
1579710542.8553338;10.262924194335938;0
1579710542.855349;7.917552947998047;0
1579710543.0313766;5.007076263427734;0
1579710543.0313954;1.9140968322753906;0
1579710543.0314116;-0.9632301330566406;0
1579710543.0314276;-3.2495689392089844;0
1579710543.031443;-4.789424896240234;0
1579710543.0314584;-5.6549835205078125;0
1579710543.0314727;-6.052803039550781;0
1579710543.031487;-6.263633728027344;0
1579710543.0330803;-6.568016052246094;0
1579710543.0331054;-7.087516784667969;0
1579710543.0331244;-7.800739288330078;0
1579710543.1886451;-8.490074157714844;0
1579710543.2004256;-8.839864730834961;0
1579710543.2004495;-8.539602279663086;0
1579710543.2004654;-7.458164215087891;0
1579710543.2004783;-5.651144027709961;0
1579710543.2004902;-3.2901859283447266;0
1579710543.2005038;-0.5156412124633789;0
1579710543.2005177;2.7381467819213867;0
1579710543.200529;6.718053817749023;0
1579710543.2005403;11.790163040161133;0
1579710543.200552;18.211334228515625;0
1579710543.3792892;25.926151275634766;0
1579710543.3793063;34.47856140136719;0
1579710543.3793206;43.13859558105469;0
1579710543.3793359;51.23259353637695;0
1579710543.3793504;58.47201156616211;0
1579710543.3793762;65.05792236328125;0
1579710543.3793902;71.55919647216797;0
1579710543.379404;78.47953796386719;0
1579710543.379418;85.90640258789062;0
1579710543.379432;93.40647888183594;0
1579710543.3794458;100.13337707519531;0
1579710543.5858948;105.2969741821289;0
1579710543.5859084;108.42640686035156;0
1579710543.5859194;109.35069274902344;0
1579710543.585931;107.9231185913086;0
1579710543.5859418;103.66016387939453;0
1579710543.5859528;95.78218841552734;0
1579710543.5859637;83.75535583496094;0
1579710543.5859747;67.74139404296875;0
1579710543.5859847;48.84063720703125;0
1579710543.5859952;28.594017028808594;0
1579710543.586006;8.076988220214844;0
1579710543.6990736;-12.868377685546875;0
1579710543.7068944;-35.59742736816406;0
1579710543.7069135;-61.885040283203125;0
1579710543.7069273;-92.75448608398438;0
1579710543.7069404;-127.59085083007812;0
1579710543.7069523;-164.21148681640625;0
1579710543.7069654;-199.5650634765625;0
1579710543.7069774;-230.7487030029297;0
1579710543.7069895;-255.59490966796875;0
1579710543.7070096;-272.663330078125;0
1579710543.7070217;-280.841552734375;0
1579710543.8905942;-278.90863037109375;0
1579710543.9010952;-265.583984375;0
1579710543.901146;-240.0049591064453;0
1579710543.9011664;-202.56747436523438;0
1579710543.9019294;-155.60134887695312;0
1579710543.9019458;-103.4520263671875;0
1579710543.9019604;-51.81205749511719;0
1579710543.9019742;-6.4407196044921875;0
1579710543.9019852;28.3797607421875;0
1579710543.9019978;51.04241943359375;0
1579710543.9020185;62.76313781738281;0
1579710544.071075;66.85978698730469;0
1579710544.0854428;67.20277404785156;0
1579710544.085455;66.89059448242188;0
1579710544.0854626;67.40483093261719;0
1579710544.0854692;68.75701904296875;0
1579710544.0854754;70.24612426757812;0
1579710544.0854824;71.05278015136719;0
1579710544.0854888;70.45018005371094;0
1579710544.0854948;67.46945190429688;0
1579710544.0855007;60.77717590332031;0
1579710544.0855074;48.81365966796875;0
1579710544.1281567;0.8109588027000427;0
1579710544.1339715;0.8173624277114868;0
1579710544.1339848;0.8186430931091309;0
1579710544.1339931;0.8199238181114197;0
1579710544.1340017;0.8148009777069092;0
1579710544.1340094;0.8173624277114868;0
1579710544.188595;30.626190185546875;0
1579710544.1974807;6.6302490234375;0
1579710544.1975048;-21.156997680664062;0
1579710544.197521;-49.53643798828125;0
1579710544.1975348;-75.1864242553711;0
1579710544.197547;-95.51435852050781;0
1579710544.1975603;-109.18910217285156;0
1579710544.197573;-115.96332550048828;0
1579710544.197585;-116.34790802001953;0
1579710544.1975963;-111.18141174316406;0
1579710544.1976075;-101.55345153808594;0
1579710544.3082013;29.75;0
1579710544.3150032;29.75;0
1579710544.3150256;29.75;0
1579710544.3150408;29.75;0
1579710544.3150616;29.729999542236328;0
1579710544.3150778;29.729999542236328;0
1579710544.315093;29.729999542236328;0
1579710544.3151076;29.729999542236328;0
1579710544.3885138;-88.7933349609375;0
1579710544.4020145;-74.27500915527344;0
1579710544.4020336;-59.233741760253906;0
1579710544.4020474;-44.30652618408203;0
1579710544.4020615;-29.520065307617188;0
1579710544.4020734;-14.498199462890625;0
1579710544.4020853;0.9680633544921875;0
1579710544.4020972;16.445648193359375;0
1579710544.4025943;30.792678833007812;0
1579710544.402609;42.64414978027344;0
1579710544.4026203;50.99107360839844;0
1579710544.5808725;55.531524658203125;0
1579710544.5883398;56.729774475097656;0
1579710544.588352;55.5037727355957;0
1579710544.5883589;52.80905532836914;0
1579710544.5883737;49.48873519897461;0
1579710544.5883827;46.21935272216797;0
1579710544.5883892;43.60564422607422;0
1579710544.5883963;42.22214889526367;0
1579710544.588403;42.516319274902344;0
1579710544.5884092;44.64280319213867;0
1579710544.5884154;48.27388381958008;0
1579710544.718922;52.67214584350586;0
1579710544.7295165;56.945858001708984;0
1579710544.7295275;60.39552307128906;0
1579710544.7295353;62.75115203857422;0
1579710544.7295425;64.24317932128906;0
1579710544.7295482;65.39971160888672;0
1579710544.7295542;66.75430297851562;0
1579710544.7295601;68.5744857788086;0
1579710544.7295659;70.65137481689453;0
1579710544.7295716;72.40235137939453;0
1579710544.729578;72.99224853515625;0
1579710544.9086525;71.658203125;0
1579710544.9152622;67.8343505859375;0
1579710544.9152834;61.236236572265625;0
1579710544.9152975;51.92912292480469;0
1579710544.9153097;40.31998825073242;0
1579710544.9153223;27.141157150268555;0
1579710544.9153342;13.326040267944336;0
1579710544.915346;-0.0981597900390625;0
1579710544.9153574;-12.194541931152344;0
1579710544.9153688;-22.268417358398438;0
1579710544.9153798;-29.973068237304688;0
1579710545.0589113;-35.35919952392578;0
1579710545.06842;-38.778438568115234;0
1579710545.0684366;-40.83427047729492;0
1579710545.06845;-42.16449737548828;0
1579710545.0684614;-43.282405853271484;0
1579710545.0684733;-44.365440368652344;0
1579710545.0684798;-45.19486618041992;0
1579710545.068486;-45.2084846496582;0
1579710545.068492;-43.70320129394531;0
1579710545.0684977;-40.226280212402344;0
1579710545.0685039;-34.805118560791016;0
1579710545.2473483;-28.049640655517578;0
1579710545.2473657;-20.962200164794922;0
1579710545.247381;-14.719761848449707;0
1579710545.247405;-10.304765701293945;0
1579710545.2480667;-8.283441543579102;0
1579710545.248086;-8.718073844909668;0
1579710545.2481012;-11.11740493774414;0
1579710545.248115;-14.56445598602295;0
1579710545.2481284;-17.930004119873047;0
1579710545.2481527;-20.14870834350586;0
1579710545.2481668;-20.464458465576172;0
1579710545.4269793;-18.704195022583008;0
1579710545.4270031;-15.229511260986328;0
1579710545.4270155;-10.739105224609375;0
1579710545.427027;-5.907482147216797;0
1579710545.4270391;-1.0978803634643555;0
1579710545.427052;3.745737075805664;0
1579710545.4270608;8.90135669708252;0
1579710545.427069;14.525186538696289;0
1579710545.4270828;20.489818572998047;0
1579710545.4271157;26.28937530517578;0
1579710545.4271288;31.21473503112793;0
1579710545.6431246;34.66743087768555;0
1579710545.6431375;36.31175231933594;0
1579710545.6431491;36.14744186401367;0
1579710545.64316;34.32866668701172;0
1579710545.6431706;31.0428466796875;0
1579710545.6431813;26.391420364379883;0
1579710545.6431918;20.530134201049805;0
1579710545.643203;13.797290802001953;0
1579710545.6432152;6.794543266296387;0
1579710545.643227;0.32690000534057617;0
1579710545.6432383;-4.897104740142822;0
1579710545.6432488;0.8096781373023987;0
1579710545.6432602;0.807116687297821;0
1579710545.643271;0.8058359622955322;0
1579710545.6432815;0.8007131218910217;0
1579710545.6432924;0.7955902814865112;0
1579710545.6433034;0.7917481064796448;0
1579710545.8383732;-8.424076080322266;0
1579710545.8456104;-10.245384216308594;0
1579710545.8456242;-10.707597732543945;0
1579710545.8456328;-10.37691879272461;0
1579710545.8456404;-9.795930862426758;0
1579710545.845647;-9.326412200927734;0
1579710545.8456547;-9.031116485595703;0
1579710545.8456616;-8.704885482788086;0
1579710545.845668;-8.104820251464844;0
1579710545.8456743;-6.969903945922852;0
1579710545.8456805;-5.249632358551025;0
1579710545.919431;-3.1022233963012695;0
1579710545.9319005;-0.879814088344574;0
1579710545.9319274;1.0001709461212158;0
1579710545.9319456;2.1627798080444336;0
1579710545.9319642;2.4316322803497314;0
1579710545.9328885;1.8645849227905273;0
1579710545.9329822;0.6197576522827148;0
1579710545.93302;-1.0975301265716553;0
1579710545.9330392;-3.067603349685669;0
1579710545.9330547;-5.10733699798584;0
1579710545.933071;-7.018946647644043;0
1579710546.1414313;-8.7138032913208;0
1579710546.1475267;-10.211146354675293;0
1579710546.147551;-11.702082633972168;0
1579710546.1475687;-13.396585464477539;0
1579710546.1475844;-15.511489868164062;0
1579710546.1475992;-18.057809829711914;0
1579710546.147616;-20.793777465820312;0
1579710546.1476758;-23.292736053466797;0
1579710546.147691;-25.059635162353516;0
1579710546.1477056;-25.757282257080078;0
1579710546.1477199;-25.286407470703125;0
1579710546.2604458;29.75;0
1579710546.2755375;29.75;0
1579710546.2755475;29.75;0
1579710546.2755537;29.75;0
1579710546.2755594;29.75;0
1579710546.2755651;29.75;0
1579710546.2755704;29.75;0
1579710546.2755756;29.75;0
1579710546.2755845;-23.797149658203125;0
1579710546.275592;-21.489511489868164;0
1579710546.275599;-18.62903594970703;0
1579710546.2756052;-15.365509986877441;0
1579710546.2756114;-11.868995666503906;0
1579710546.2756176;-8.319375991821289;0
1579710546.2756698;-4.820802688598633;0
1579710546.2756767;-1.402862548828125;0
1579710546.2756832;2.079988479614258;0
1579710546.275689;5.839656829833984;0
1579710546.275695;10.076051712036133;0
1579710546.4496622;14.733144760131836;0
1579710546.4551463;19.474363327026367;0
1579710546.455158;23.701929092407227;0
1579710546.4551654;26.81443214416504;0
1579710546.455172;28.48893165588379;0
1579710546.4551792;28.86595344543457;0
1579710546.455186;28.521329879760742;0
1579710546.4551919;28.197444915771484;0
1579710546.4551985;28.457761764526367;0
1579710546.455205;29.492958068847656;0
1579710546.4552104;31.069494247436523;0
1579710546.629778;32.7618408203125;0
1579710546.6368577;34.11637496948242;0
1579710546.6368809;34.98995590209961;0
1579710546.6368978;35.462989807128906;0
1579710546.6375055;35.77186584472656;0
1579710546.637524;36.07017517089844;0
1579710546.6375403;36.36954116821289;0
1579710546.6375544;36.583099365234375;0
1579710546.637568;36.54669952392578;0
1579710546.6375816;36.18104934692383;0
1579710546.637595;35.423377990722656;0
1579710546.7822764;34.24834442138672;0
1579710546.7877994;32.51279067993164;0
1579710546.7878115;30.102893829345703;0
1579710546.7878206;26.824031829833984;0
1579710546.787828;22.597728729248047;0
1579710546.7878356;17.402790069580078;0
1579710546.7878428;11.34872055053711;0
1579710546.78785;4.738813400268555;0
1579710546.7878573;-2.019717216491699;0
1579710546.7878637;-8.368656158447266;0
1579710546.7878704;-13.84542465209961;0
1579710546.9682298;-18.135169982910156;0
1579710546.9682484;-21.289234161376953;0
1579710546.9682605;-23.592002868652344;0
1579710546.9682782;-25.42488670349121;0
1579710546.968293;-27.050058364868164;0
1579710546.9683094;-28.419034957885742;0
1579710546.9683275;-29.309999465942383;0
1579710546.9683452;-29.476816177368164;0
1579710546.9713767;-28.84362030029297;0
1579710546.9713876;-27.549545288085938;0
1579710546.9713955;-25.92656135559082;0
1579710547.1185548;0.7891867160797119;0
1579710547.1253436;0.7879059910774231;0
1579710547.1253605;0.7853445410728455;0
1579710547.1253688;0.780221700668335;0
1579710547.1253753;0.7776602506637573;0
1579710547.1253815;0.7763795256614685;0
1579710547.1253896;-24.333999633789062;0
1579710547.1253972;-23.03155517578125;0
1579710547.1254036;-22.221309661865234;0
1579710547.1254096;-21.906902313232422;0
1579710547.125415;-22.013614654541016;0
1579710547.125421;-22.410480499267578;0
1579710547.125427;-22.800125122070312;0
1579710547.1254332;-22.862655639648438;0
1579710547.125439;-22.34039878845215;0
1579710547.1254447;-21.113590240478516;0
1579710547.1254508;-19.28204345703125;0
1579710547.3580658;-17.171913146972656;0
1579710547.3651204;-15.124872207641602;0
1579710547.3651435;-13.456048965454102;0
1579710547.3651822;-12.300934791564941;0
1579710547.3651993;-11.648204803466797;0
1579710547.3659518;-11.346990585327148;0
1579710547.3659692;-11.248881340026855;0
1579710547.3659837;-11.167750358581543;0
1579710547.3659978;-10.955680847167969;0
1579710547.3660111;-10.478074073791504;0
1579710547.3660257;-9.625788688659668;0
1579710547.4983437;-8.3392972946167;0
1579710547.5027387;-6.647299766540527;0
1579710547.5027506;-4.723903656005859;0
1579710547.5027587;-2.9163904190063477;0
1579710547.5027647;-1.6585712432861328;0
1579710547.502771;-1.3407058715820312;0
1579710547.5027769;-2.1595258712768555;0
1579710547.502783;-4.006244659423828;0
1579710547.5027888;-6.503719329833984;0
1579710547.5027945;-9.081062316894531;0
1579710547.5028012;-11.110960006713867;0
1579710547.6873116;-11.995810508728027;0
1579710547.6873202;-11.240279197692871;0
1579710547.6873274;-8.520807266235352;0
1579710547.6873336;-3.7177858352661133;0
1579710547.68736;2.875279426574707;0
1579710547.6873672;10.653507232666016;0
1579710547.6873732;18.71614646911621;0
1579710547.6873794;26.1171932220459;0
1579710547.6873853;32.13371658325195;0
1579710547.6873918;36.459190368652344;0
1579710547.687398;39.130863189697266;0
1579710547.8981395;40.445465087890625;0
1579710547.903502;40.70813751220703;0
1579710547.9035141;40.13140869140625;0
1579710547.9035223;38.842491149902344;0
1579710547.903529;36.949581146240234;0
1579710547.9035356;34.58705520629883;0
1579710547.9035428;31.94629669189453;0
1579710547.9035492;29.200668334960938;0
1579710547.903556;26.4974365234375;0
1579710547.9035623;23.877639770507812;0
1579710547.9035683;21.29653549194336;0
1579710547.9788723;18.6314754486084;0
1579710547.9841952;15.718222618103027;0
1579710547.984206;12.410888671875;0
1579710547.9842238;8.717938423156738;0
1579710547.9842327;4.855746269226074;0
1579710547.984239;1.2008533477783203;0
1579710547.9842465;-1.7960319519042969;0
1579710547.984253;-3.9074478149414062;0
1579710547.9842596;-5.175666809082031;0
1579710547.984266;-6.001530647277832;0
1579710547.9842718;-6.924403190612793;0
1579710548.1983614;-8.443879127502441;0
1579710548.2050736;-10.681925773620605;0
1579710548.205093;-13.411843299865723;0
1579710548.2051067;-16.21076202392578;0
1579710548.2051194;-18.650175094604492;0
1579710548.205132;-20.533641815185547;0
1579710548.2051437;-21.82509994506836;0
1579710548.2051551;-22.71749496459961;0
1579710548.2051666;-23.344058990478516;0
1579710548.2051783;-23.816055297851562;0
1579710548.2051992;-24.09287452697754;0
1579710548.2393892;29.709999084472656;0
1579710548.245146;29.709999084472656;0
1579710548.2451565;29.709999084472656;0
1579710548.2451637;29.709999084472656;0
1579710548.2451704;29.709999084472656;0
1579710548.2451763;29.709999084472656;0
1579710548.2451823;29.709999084472656;0
1579710548.2451894;29.709999084472656;0
1579710548.3283343;-24.03733253479004;0
1579710548.336906;-23.574968338012695;0
1579710548.3369255;-22.672006607055664;0
1579710548.33694;-21.367015838623047;0
1579710548.3369553;-19.720123291015625;0
1579710548.3369703;-17.797330856323242;0
1579710548.336991;-15.604240417480469;0
1579710548.337005;-13.194766998291016;0
1579710548.3370204;-10.691963195800781;0
1579710548.3370352;-8.281135559082031;0
1579710548.3370483;-6.127326965332031;0
1579710548.5723646;-4.320283889770508;0
1579710548.579954;-2.8070011138916016;0
1579710548.57997;-1.3916511535644531;0
1579710548.579981;0.10546302795410156;0
1579710548.5799906;1.7830467224121094;0
1579710548.5799992;3.5793304443359375;0
1579710548.58001;5.281063079833984;0
1579710548.5800278;6.727998733520508;0
1579710548.5800374;7.876583099365234;0
1579710548.5800462;8.822893142700195;0
1579710548.5800543;9.680681228637695;0
1579710548.6182349;0.7725374102592468;0
1579710548.6312935;0.771256685256958;0
1579710548.631312;0.7686952352523804;0
1579710548.6313262;0.7661338448524475;0
1579710548.6313405;0.7635723948478699;0
1579710548.631354;0.7648531198501587;0
1579710548.7004821;10.489971160888672;0
1579710548.705045;11.152299880981445;0
1579710548.7050598;11.503467559814453;0
1579710548.7050686;11.502067565917969;0
1579710548.7050776;11.20649528503418;0
1579710548.7053864;10.9012451171875;0
1579710548.705396;10.803483963012695;0
1579710548.7054029;10.990617752075195;0
1579710548.7054095;11.294353485107422;0
1579710548.7054179;11.353412628173828;0
1579710548.7054288;10.842313766479492;0
1579710548.8380253;9.69232177734375;0
1579710548.844482;8.06466293334961;0
1579710548.8444934;6.2871856689453125;0
1579710548.8445013;4.701007843017578;0
1579710548.844581;3.3938980102539062;0
1579710548.8445973;2.3020095825195312;0
1579710548.844609;1.2957878112792969;0
1579710548.8446164;0.33396148681640625;0
1579710548.844623;-0.5064506530761719;0
1579710548.8446293;-1.0266036987304688;0
1579710548.8446355;-1.1158332824707031;0
1579710549.0381594;-0.9158248901367188;0
1579710549.043229;-0.7114181518554688;0
1579710549.0432422;-0.8910942077636719;0
1579710549.0432515;-1.6784210205078125;0
1579710549.043259;-3.0560035705566406;0
1579710549.0432673;-4.757232666015625;0
1579710549.04328;-6.4585113525390625;0
1579710549.04329;-7.890411376953125;0
1579710549.0432963;-8.964458465576172;0
1579710549.043303;-9.787269592285156;0
1579710549.0433092;-10.510417938232422;0
1579710549.1890893;-11.249069213867188;0
1579710549.2013404;-12.061519622802734;0
1579710549.2013588;-12.938468933105469;0
1579710549.2013745;-13.885509490966797;0
1579710549.201388;-14.914180755615234;0
1579710549.2013998;-15.978012084960938;0
1579710549.2014103;-16.932498931884766;0
1579710549.201421;-17.575157165527344;0
1579710549.201433;-17.632545471191406;0
1579710549.2014446;-16.999286651611328;0
1579710549.201455;-15.711128234863281;0
1579710549.3815227;-13.982372283935547;0
1579710549.3815355;-12.08578872680664;0
1579710549.3815563;-10.234790802001953;0
1579710549.3815703;-8.497367858886719;0
1579710549.3815808;-6.848773956298828;0
1579710549.3815887;-5.291797637939453;0
1579710549.3815947;-3.904766082763672;0
1579710549.3816006;-2.8631744384765625;0
1579710549.3816068;-2.270313262939453;0
1579710549.3816125;-2.0323448181152344;0
1579710549.3816185;-1.8531417846679688;0
1579710549.5468757;-1.3587722778320312;0
1579710549.5471947;-0.2657127380371094;0
1579710549.5472035;1.4089069366455078;0
1579710549.5472105;3.35247802734375;0
1579710549.5472164;5.13726806640625;0
1579710549.5472229;6.392860412597656;0
1579710549.5472293;6.996648788452148;0
1579710549.5472367;7.086324691772461;0
1579710549.547243;6.930732727050781;0
1579710549.5472493;6.749065399169922;0
1579710549.5472555;6.600933074951172;0
1579710549.7867966;6.464263916015625;0
1579710549.786807;6.271511077880859;0
1579710549.7868137;6.084959030151367;0
1579710549.78682;6.068166732788086;0
1579710549.786826;6.394306182861328;0
1579710549.7868316;7.134313583374023;0
1579710549.7868378;8.12104606628418;0
1579710549.7868443;9.083097457885742;0
1579710549.7868497;9.765108108520508;0
1579710549.7868562;10.069892883300781;0
1579710549.7868624;10.073677062988281;0
1579710549.888564;9.95145034790039;0
1579710549.904161;9.833866119384766;0
1579710549.904171;9.651744842529297;0
1579710549.9041853;9.197713851928711;0
1579710549.9041915;8.206586837768555;0
1579710549.904199;6.557514190673828;0
1579710549.9042056;4.304731369018555;0
1579710549.904212;1.6809024810791016;0
1579710549.9042184;-1.0120849609375;0
1579710549.9042244;-3.5443038940429688;0
1579710549.9042304;-5.782848358154297;0
1579710550.05048;-7.748361587524414;0
1579710550.0584347;-9.49211311340332;0
1579710550.058457;-11.14921760559082;0
1579710550.058473;-12.832550048828125;0
1579710550.0584888;-14.630277633666992;0
1579710550.058511;-16.560321807861328;0
1579710550.0585268;-18.544553756713867;0
1579710550.0585406;-20.35410499572754;0
1579710550.0585523;-21.715320587158203;0
1579710550.0585663;-22.411327362060547;0
1579710550.0585797;-22.28439712524414;0
1579710550.1284933;0.761011004447937;0
1579710550.136248;0.762291669845581;0
1579710550.1362908;0.762291669845581;0
1579710550.1363287;0.761011004447937;0
1579710550.1363645;0.762291669845581;0
1579710550.136384;0.7584495544433594;0
1579710550.2885063;-21.353992462158203;0
1579710550.2992752;-19.757213592529297;0
1579710550.299919;-17.71949005126953;0
1579710550.29994;-15.472420692443848;0
1579710550.2999601;-13.265841484069824;0
1579710550.2999754;-11.249992370605469;0
1579710550.299991;-9.535306930541992;0
1579710550.3000054;-8.126279830932617;0
1579710550.3000202;-6.968421936035156;0
1579710550.3000345;-5.916298866271973;0
1579710550.3001916;-4.850497245788574;0
1579710550.3002083;29.729999542236328;0
1579710550.3002212;29.729999542236328;0
1579710550.300234;29.729999542236328;0
1579710550.3002462;29.729999542236328;0
1579710550.3002586;29.709999084472656;0
1579710550.3002703;29.709999084472656;0
1579710550.300292;29.709999084472656;0
1579710550.300309;29.709999084472656;0
1579710550.379365;-3.697614908218384;0
1579710550.384871;-2.493508815765381;0
1579710550.3849003;-1.3405760526657104;0
1579710550.3849213;-0.4047154188156128;0
1579710550.3849385;0.20761895179748535;0
1579710550.3853018;0.5196719169616699;0
1579710550.3853328;0.7071373462677002;0
1579710550.3853528;1.037034511566162;0
1579710550.38537;1.7233729362487793;0
1579710550.3853874;2.8456273078918457;0
1579710550.3854034;4.310993194580078;0
1579710550.5719204;5.970593452453613;0
1579710550.5777168;7.671879768371582;0
1579710550.5777295;9.357026100158691;0
1579710550.5777388;11.02093505859375;0
1579710550.5777466;12.680356979370117;0
1579710550.5777538;14.192880630493164;0
1579710550.577778;15.30055046081543;0
1579710550.5777845;15.746540069580078;0
1579710550.577791;15.344646453857422;0
1579710550.577797;14.171243667602539;0
1579710550.577803;12.52804946899414;0
1579710550.7683222;10.84217643737793;0
1579710550.7730067;9.500917434692383;0
1579710550.7730174;8.757539749145508;0
1579710550.7730248;8.554729461669922;0
1579710550.7730317;8.614234924316406;0
1579710550.7730377;8.627466201782227;0
1579710550.7730446;8.330358505249023;0
1579710550.7730508;7.630580902099609;0
1579710550.7730649;6.581418991088867;0
1579710550.7730706;5.304420471191406;0
1579710550.7730768;3.910755157470703;0
1579710550.9106147;2.4924144744873047;0
1579710550.916223;1.0807514190673828;0
1579710550.9162433;-0.3064231872558594;0
1579710550.9162552;-1.617645263671875;0
1579710550.916266;-2.8195419311523438;0
1579710550.9162767;-3.897552490234375;0
1579710550.9162874;-4.8665008544921875;0
1579710550.9162972;-5.736492156982422;0
1579710550.916307;-6.502620697021484;0
1579710550.9163165;-7.125789642333984;0
1579710550.9163277;-7.5580596923828125;0
1579710551.1006458;-7.804393768310547;0
1579710551.10066;-7.93060302734375;0
1579710551.100673;-8.044319152832031;0
1579710551.100695;-8.19100570678711;0
1579710551.1007075;-8.341117858886719;0
1579710551.1007197;-8.440990447998047;0
1579710551.1007423;-8.487537384033203;0
1579710551.1007576;-8.564178466796875;0
1579710551.1007795;-8.830039978027344;0
1579710551.1007912;-9.319740295410156;0
1579710551.1008039;-9.833564758300781;0
1579710551.2481031;-9.954383850097656;0
1579710551.2586224;-9.19546890258789;0
1579710551.258639;-7.248897552490234;0
1579710551.2586508;-4.2296295166015625;0
1579710551.2586584;-0.6126556396484375;0
1579710551.2586653;2.9774246215820312;0
1579710551.2586725;6.023597717285156;0
1579710551.2586787;8.402587890625;0
1579710551.2586854;10.327945709228516;0
1579710551.2586915;12.133502960205078;0
1579710551.2586975;14.067947387695312;0
1579710551.4394133;16.215267181396484;0
1579710551.4394214;18.412372589111328;0
1579710551.4394279;20.441139221191406;0
1579710551.4394338;22.129966735839844;0
1579710551.43944;23.426483154296875;0
1579710551.4394462;24.442569732666016;0
1579710551.4394522;25.396095275878906;0
1579710551.4394586;26.56824493408203;0
1579710551.4394643;28.188121795654297;0
1579710551.4394703;30.429119110107422;0
1579710551.4394765;33.26072692871094;0
1579710551.620635;36.48831558227539;0
1579710551.6206503;39.81583786010742;0
1579710551.6206625;42.90104293823242;0
1579710551.620675;45.494873046875;0
1579710551.620688;47.51768493652344;0
1579710551.6206996;49.06597137451172;0
1579710551.6207116;50.447303771972656;0
1579710551.6207237;52.13233947753906;0
1579710551.621208;54.56752014160156;0
1579710551.621223;58.062744140625;0
1579710551.621235;62.567588806152344;0
1579710551.6212478;0.762291669845581;0
1579710551.62126;0.7584495544433594;0
1579710551.6212766;0.7558881044387817;0
1579710551.6212902;0.7494845390319824;0
1579710551.6213026;0.7507652640342712;0
1579710551.6282587;0.7418002486228943;0
1579710551.8055513;67.61988067626953;0
1579710551.805567;72.56511688232422;0
1579710551.8055744;76.85653686523438;0
1579710551.8055806;80.37150573730469;0
1579710551.8055873;83.50933837890625;0
1579710551.805593;86.92529296875;0
1579710551.8055995;91.09130096435547;0
1579710551.8056056;96.08909606933594;0
1579710551.8056126;101.66617584228516;0
1579710551.8056185;107.54318237304688;0
1579710551.8056245;113.88084411621094;0
1579710552.021451;120.82750701904297;0
1579710552.0332923;127.88231658935547;0
1579710552.0333028;133.09521484375;0
1579710552.0333102;132.91717529296875;0
1579710552.0333166;122.97264099121094;0
1579710552.033323;99.48017883300781;0
1579710552.0333307;60.5444221496582;0
1579710552.0333378;6.3751373291015625;0
1579710552.0333443;-61.04638671875;0
1579710552.0333502;-138.583251953125;0
1579710552.0333562;-221.91094970703125;0
1579710552.1182663;-304.89031982421875;0
1579710552.1288295;-379.1756286621094;0
1579710552.1288424;-434.9874267578125;0
1579710552.1288497;-463.449462890625;0
1579710552.128857;-459.59576416015625;0
1579710552.1288645;-424.7289733886719;0
1579710552.1288712;-366.38922119140625;0
1579710552.1288779;-295.9552001953125;0
1579710552.1288848;-224.8160400390625;0
1579710552.1288905;-161.17648315429688;0
1579710552.1288967;-108.65589904785156;0
1579710552.2582424;29.709999084472656;0
1579710552.2652445;29.709999084472656;0
1579710552.2652571;29.709999084472656;0
1579710552.2652657;29.709999084472656;0
1579710552.2652736;29.729999542236328;0
1579710552.2652814;29.729999542236328;0
1579710552.265288;29.729999542236328;0
1579710552.265294;29.729999542236328;0
1579710552.2983575;-67.01799011230469;0
1579710552.304512;-34.16860580444336;0
1579710552.304544;-7.984550476074219;0
1579710552.3045564;12.746772766113281;0
1579710552.3045666;28.53659439086914;0
1579710552.3045805;39.837249755859375;0
1579710552.3045938;47.568477630615234;0
1579710552.304606;53.119239807128906;0
1579710552.3046157;57.751380920410156;0
1579710552.3046243;62.262393951416016;0
1579710552.304634;66.62710571289062;0
1579710552.540351;70.16111755371094;0
1579710552.544011;71.95999145507812;0
1579710552.5440273;71.49085998535156;0
1579710552.544039;68.890380859375;0
1579710552.5440497;64.9481201171875;0
1579710552.544061;60.83094024658203;0
1579710552.5440793;57.51271057128906;0
1579710552.5440912;55.417320251464844;0
1579710552.544102;54.180580139160156;0
1579710552.5441127;52.9228401184082;0
1579710552.544123;50.58821105957031;0
1579710552.706145;46.52909469604492;0
1579710552.7061675;40.80310821533203;0
1579710552.7061834;34.10968017578125;0
1579710552.7061975;27.50967788696289;0
1579710552.7062132;21.872058868408203;0
1579710552.706229;17.480789184570312;0
1579710552.7062428;13.921180725097656;0
1579710552.706257;10.470428466796875;0
1579710552.7062712;6.507627487182617;0
1579710552.7062845;1.90545654296875;0
1579710552.7062988;-2.9032440185546875;0
1579710552.9019065;-7.3001861572265625;0
1579710552.911917;-10.787517547607422;0
1579710552.911934;-13.296989440917969;0
1579710552.9119556;-15.158061981201172;0
1579710552.9119706;-16.891963958740234;0
1579710552.9119809;-18.89861297607422;0
1579710552.9119916;-21.24688720703125;0
1579710552.9120026;-23.695816040039062;0
1579710552.912013;-25.85155487060547;0
1579710552.9120238;-27.275283813476562;0
1579710552.9120347;-27.457077026367188;0
1579710552.9780464;-25.89965057373047;0
1579710552.9891164;-22.15802001953125;0
1579710552.9891334;-16.011558532714844;0
1579710552.989153;-7.718742370605469;0
1579710552.9891653;1.928863525390625;0
1579710552.9891756;11.7747802734375;0
1579710552.989188;20.649314880371094;0
1579710552.9891999;27.71668243408203;0
1579710552.9896874;32.79261016845703;0
1579710552.9897006;36.21477508544922;0
1579710552.9897115;38.67102813720703;0
1579710553.1291509;0.7456424236297607;0
1579710553.1584933;0.7418002486228943;0
1579710553.1585178;0.7418002486228943;0
1579710553.158533;0.7392388582229614;0
1579710553.1585474;0.7405195236206055;0
1579710553.1585627;0.7328352928161621;0
1579710553.1626296;40.846435546875;0
1579710553.162652;43.162391662597656;0
1579710553.1626759;45.69233703613281;0
1579710553.1626906;48.20946502685547;0
1579710553.1627133;50.312416076660156;0
1579710553.1627364;51.58555603027344;0
1579710553.1627598;51.73530578613281;0
1579710553.162772;50.67186737060547;0
1579710553.162785;48.54283905029297;0
1579710553.1627975;45.623870849609375;0
1579710553.1628098;42.238677978515625;0
1579710553.3102841;38.634071350097656;0
1579710553.314945;34.925567626953125;0
1579710553.3149762;31.141204833984375;0
1579710553.3149922;27.269805908203125;0
1579710553.3150065;23.373336791992188;0
1579710553.3150206;19.572189331054688;0
1579710553.315035;16.140823364257812;0
1579710553.3150487;13.394607543945312;0
1579710553.3150635;11.58856201171875;0
1579710553.315087;10.843673706054688;0
1579710553.315101;11.047103881835938;0
1579710553.4959202;11.8441162109375;0
1579710553.4959307;12.714462280273438;0
1579710553.4959376;13.157989501953125;0
1579710553.4959443;12.836105346679688;0
1579710553.4959502;11.752609252929688;0
1579710553.4959571;10.155288696289062;0
1579710553.495964;8.400375366210938;0
1579710553.4959705;6.789459228515625;0
1579710553.4959767;5.43719482421875;0
1579710553.4959831;4.3000640869140625;0
1579710553.4959896;3.2687225341796875;0
1579710553.684149;2.2622833251953125;0
1579710553.684159;1.2848663330078125;0
1579710553.6841714;0.4479827880859375;0
1579710553.684178;-0.14306640625;0
1579710553.6841846;-0.4003143310546875;0
1579710553.684192;-0.3229522705078125;0
1579710553.6842024;-0.0073394775390625;0
1579710553.684212;0.3997650146484375;0
1579710553.684218;0.7283935546875;0
1579710553.6845005;0.8727874755859375;0
1579710553.684509;0.8261489868164062;0
1579710553.903536;0.6633987426757812;0
1579710553.9035444;0.5008468627929688;0
1579710553.9035504;0.342132568359375;0
1579710553.9035563;0.0855255126953125;0
1579710553.9035623;-0.5227279663085938;0
1579710553.9035687;-1.7394256591796875;0
1579710553.9035747;-3.730712890625;0
1579710553.903588;-6.5069580078125;0
1579710553.9035945;-9.870040893554688;0
1579710553.9036007;-13.593887329101562;0
1579710553.9036071;-17.40570068359375;0
1579710554.019251;-21.059982299804688;0
1579710554.031604;-24.35498809814453;0
1579710554.0316172;-27.100692749023438;0
1579710554.0316708;-29.135025024414062;0
1579710554.0316787;-30.317359924316406;0
1579710554.0316927;-30.574081420898438;0
1579710554.0316997;-29.845863342285156;0
1579710554.0317059;-28.133827209472656;0
1579710554.0317116;-25.44518280029297;0
1579710554.0317173;-21.854270935058594;0
1579710554.0317233;-17.58222198486328;0
1579710554.1782224;-13.02630615234375;0
1579710554.1866798;-8.671295166015625;0
1579710554.1867082;-4.927787780761719;0
1579710554.1867232;-2.0547256469726562;0
1579710554.186735;-0.04864501953125;0
1579710554.1867478;1.297271728515625;0
1579710554.1867602;2.3133773803710938;0
1579710554.1867704;3.3483657836914062;0
1579710554.1867807;4.687705993652344;0
1579710554.186792;6.5369415283203125;0
1579710554.1868024;9.024429321289062;0
1579710554.242339;29.709999084472656;0
1579710554.2525826;29.709999084472656;0
1579710554.2526052;29.709999084472656;0
1579710554.252623;29.709999084472656;0
1579710554.25264;29.709999084472656;0
1579710554.2526562;29.709999084472656;0
1579710554.2526712;29.709999084472656;0
1579710554.252686;29.709999084472656;0
1579710554.3583264;12.1934814453125;0
1579710554.3641598;15.814979553222656;0
1579710554.3641763;19.352516174316406;0
1579710554.3641846;22.041664123535156;0
1579710554.364192;23.13922882080078;0
1579710554.3641994;22.26116943359375;0
1579710554.3642056;19.56055450439453;0
1579710554.364212;15.712356567382812;0
1579710554.3645082;11.547264099121094;0
1579710554.364516;7.722709655761719;0
1579710554.3645225;4.451286315917969;0
1579710554.5029418;1.51129150390625;0
1579710554.5128863;-1.4685592651367188;0
1579710554.5129092;-4.7682647705078125;0
1579710554.5129254;-8.367660522460938;0
1579710554.5129433;-12.026176452636719;0
1579710554.5129623;-15.43353271484375;0
1579710554.5129757;-18.406761169433594;0
1579710554.512987;-20.94073486328125;0
1579710554.512998;-23.154815673828125;0
1579710554.513009;-25.091964721679688;0
1579710554.5130203;-26.568557739257812;0
1579710554.6302037;0.7328352928161621;0
1579710554.6372957;0.7225895524024963;0
1579710554.6373305;0.7187474370002747;0
1579710554.6373494;0.7213088274002075;0
1579710554.6373618;0.7149052619934082;0
1579710554.6373734;0.7085016965866089;0
1579710554.689713;-27.272727966308594;0
1579710554.69623;-26.802085876464844;0
1579710554.6962485;-24.901443481445312;0
1579710554.6962628;-21.580459594726562;0
1579710554.696276;-17.19141387939453;0
1579710554.6962883;-12.305305480957031;0
1579710554.696302;-7.551811218261719;0
1579710554.6963148;-3.506378173828125;0
1579710554.6963267;-0.521270751953125;0
1579710554.6963482;1.203887939453125;0
1579710554.6963599;1.68133544921875;0
1579710554.8483825;1.045654296875;0
1579710554.85339;-0.5366668701171875;0
1579710554.8534133;-2.91619873046875;0
1579710554.8534315;-5.8967742919921875;0
1579710554.8534467;-9.2696533203125;0
1579710554.8534615;-12.699142456054688;0
1579710554.8534765;-15.727645874023438;0
1579710554.8534906;-17.834686279296875;0
1579710554.8535051;-18.516403198242188;0
1579710554.853518;-17.4376220703125;0
1579710554.8535318;-14.622512817382812;0
1579710555.0398638;-10.411270141601562;0
1579710555.0466866;-5.3530731201171875;0
1579710555.046709;-0.0670623779296875;0
1579710555.0467265;4.9789276123046875;0
1579710555.0467436;9.489395141601562;0
1579710555.0467606;13.32391357421875;0
1579710555.046775;16.386367797851562;0
1579710555.0467894;18.602523803710938;0
1579710555.0468035;19.837066650390625;0
1579710555.047365;19.944915771484375;0
1579710555.04738;18.744766235351562;0
1579710555.2205029;16.092971801757812;0
1579710555.229865;12.007369995117188;0
1579710555.229881;6.79656982421875;0
1579710555.229895;1.06854248046875;0
1579710555.2299092;-4.361907958984375;0
1579710555.229922;-8.563507080078125;0
1579710555.2299352;-10.930801391601562;0
1579710555.229948;-11.211273193359375;0
1579710555.22996;-9.61773681640625;0
1579710555.2299724;-6.6722564697265625;0
1579710555.2299852;-2.9559478759765625;0
1579710555.378043;1.1063232421875;0
1579710555.3840628;5.264892578125;0
1579710555.3840759;9.459396362304688;0
1579710555.3840842;13.667816162109375;0
1579710555.3840992;17.853668212890625;0
1579710555.384106;21.95355224609375;0
1579710555.3841124;25.929397583007812;0
1579710555.3841183;29.807601928710938;0
1579710555.3841243;33.60954284667969;0
1579710555.3841298;37.26567077636719;0
1579710555.3841357;40.58268737792969;0
1579710555.5897167;43.26318359375;0
1579710555.589737;45.06072998046875;0
1579710555.589752;45.8675537109375;0
1579710555.5897665;45.82025146484375;0
1579710555.5897815;45.26182556152344;0
1579710555.5897954;44.56819152832031;0
1579710555.589809;44.01646423339844;0
1579710555.589822;43.6102294921875;0
1579710555.5898354;43.16094970703125;0
1579710555.589849;42.35276794433594;0
1579710555.5898628;40.85859680175781;0
1579710555.7061024;38.40263366699219;0
1579710555.7061183;34.8389892578125;0
1579710555.7061362;30.165496826171875;0
1579710555.7133346;24.446685791015625;0
1579710555.7133667;17.887985229492188;0
1579710555.7133904;10.778060913085938;0
1579710555.7134123;3.5754547119140625;0
1579710555.7134311;-3.2483673095703125;0
1579710555.7134483;-9.239044189453125;0
1579710555.7134655;-14.115203857421875;0
1579710555.7134817;-17.847976684570312;0
1579710555.9675636;-20.68536376953125;0
1579710555.9675746;-23.012466430664062;0
1579710555.9675815;-25.159072875976562;0
1579710555.967588;-27.257476806640625;0
1579710555.967597;-29.120697021484375;0
1579710555.968016;-30.409805297851562;0
1579710555.9680247;-30.690811157226562;0
1579710555.968032;-29.72930908203125;0
1579710555.9680383;-27.581130981445312;0
1579710555.9680443;-24.580078125;0
1579710555.9680507;-21.187957763671875;0
1579710556.0883617;-17.807907104492188;0
1579710556.0961015;-14.678466796875;0
1579710556.096115;-11.800849914550781;0
1579710556.0961237;-9.048660278320312;0
1579710556.0961301;-6.2380828857421875;0
1579710556.096136;-3.2734527587890625;0
1579710556.0961442;-0.24219512939453125;0
1579710556.0961514;2.5382461547851562;0
1579710556.0961576;4.669319152832031;0
1579710556.0961633;5.826667785644531;0
1579710556.0961692;5.954353332519531;0
1579710556.0962124;0.7097824215888977;0
1579710556.0962186;0.7097824215888977;0
1579710556.0962317;0.7085016965866089;0
1579710556.0962377;0.7059402465820312;0
1579710556.0962436;0.7046595811843872;0
1579710556.0962496;0.7020981311798096;0
1579710556.2680562;5.422401428222656;0
1579710556.2769005;4.88299560546875;0
1579710556.2769282;5.057975769042969;0
1579710556.2769482;6.446533203125;0
1579710556.2769666;9.018394470214844;0
1579710556.2769842;12.254371643066406;0
1579710556.2770007;15.327987670898438;0
1579710556.2770169;17.472747802734375;0
1579710556.2770326;18.33245849609375;0
1579710556.2770486;18.200973510742188;0
1579710556.2770631;17.98046875;0
1579710556.2770786;29.729999542236328;0
1579710556.2770934;29.729999542236328;0
1579710556.2771091;29.729999542236328;0
1579710556.277124;29.729999542236328;0
1579710556.2771385;29.709999084472656;0
1579710556.2771528;29.709999084472656;0
1579710556.2771676;29.709999084472656;0
1579710556.277182;29.709999084472656;0
1579710556.452549;18.959945678710938;0
1579710556.4586263;22.34941864013672;0
1579710556.4586437;28.68077850341797;0
1579710556.458657;37.59040069580078;0
1579710556.458677;47.689247131347656;0
1579710556.4586887;57.06322479248047;0
1579710556.4586995;63.861202239990234;0
1579710556.4587114;66.951416015625;0
1579710556.4587238;66.23381042480469;0
1579710556.4592097;62.64715576171875;0
1579710556.4592273;57.884605407714844;0
1579710556.5798512;53.89731216430664;0
1579710556.5850177;52.324031829833984;0
1579710556.5850418;53.79328155517578;0
1579710556.5850606;57.26631546020508;0
1579710556.585077;59.833404541015625;0
1579710556.5850918;57.3088264465332;0
1579710556.585106;45.55957794189453;0
1579710556.5851204;22.21938705444336;0
1579710556.5851357;-11.959232330322266;0
1579710556.58515;-53.130592346191406;0
1579710556.585164;-95.46133422851562;0
1579710556.7683632;-133.10704040527344;0
1579710556.7743475;-162.00965881347656;0
1579710556.774367;-180.70718383789062;0
1579710556.7743812;-189.9896240234375;0
1579710556.7743936;-191.76824951171875;0
1579710556.774405;-188.0060272216797;0
1579710556.7744167;-180.09988403320312;0
1579710556.7744281;-168.9763946533203;0
1579710556.774439;-155.43017578125;0
1579710556.7744505;-140.40013122558594;0
1579710556.7744617;-124.90054321289062;0
1579710556.918217;-109.77434539794922;0
1579710556.9244137;-95.40145111083984;0
1579710556.924433;-81.58382415771484;0
1579710556.9244428;-67.76498413085938;0
1579710556.924451;-53.29420471191406;0
1579710556.924461;-37.94300842285156;0
1579710556.9244738;-22.07790756225586;0
1579710556.9244854;-6.589872360229492;0
1579710556.9244967;7.387706756591797;0
1579710556.9245083;18.98308563232422;0
1579710556.924522;27.905609130859375;0
1579710557.0939765;34.527034759521484;0
1579710557.1013765;39.5930061340332;0
1579710557.1013885;43.91175842285156;0
1579710557.1013963;47.94035339355469;0
1579710557.101403;51.60847473144531;0
