1579710302.3893719;-18.326995849609375;0
1579710302.4377968;-21.766021728515625;0
1579710302.4378083;-24.371856689453125;0
1579710302.437816;-26.237213134765625;0
1579710302.4378245;-27.66864013671875;0
1579710302.4378316;-29.147003173828125;0
1579710302.4378383;-31.04144287109375;0
1579710302.4378448;-33.557281494140625;0
1579710302.437851;-36.625091552734375;0
1579710302.437865;-40.017578125;0
1579710302.4378715;-43.39691162109375;0
1579710302.6546457;-46.427642822265625;0
1579710302.6657789;-48.920928955078125;0
1579710302.6657906;-50.774810791015625;0
1579710302.6657984;-52.080078125;0
1579710302.6658056;-53.016265869140625;0
1579710302.6658125;-53.89874267578125;0
1579710302.6658196;-55.07611083984375;0
1579710302.6658258;-56.78631591796875;0
1579710302.6658325;-59.131378173828125;0
1579710302.665843;-61.99609375;0
1579710302.6658523;-65.19168090820312;0
1579710302.6659286;0.20363356173038483;0
1579710302.6659396;0.19979141652584076;0
1579710302.6659455;0.20107214152812958;0
1579710302.6659515;0.20107214152812958;0
1579710302.665958;0.20619499683380127;0
1579710302.6659641;0.2023528516292572;0
1579710302.7352445;-68.52926635742188;0
1579710302.7471852;-71.96188354492188;0
1579710302.7471988;-75.53314208984375;0
1579710302.7472084;-79.19790649414062;0
1579710302.7472172;-82.7562255859375;0
1579710302.7472246;-85.67117309570312;0
1579710302.747232;-87.30624389648438;0
1579710302.7472386;-87.12704467773438;0
1579710302.7472456;-84.95138549804688;0
1579710302.7472517;-81.05728149414062;0
1579710302.7472582;-76.09942626953125;0
1579710302.9544194;-70.77456665039062;0
1579710302.9612484;-65.59713745117188;0
1579710302.9612606;-60.727294921875;0
1579710302.9612696;-55.948211669921875;0
1579710302.9612768;-50.8448486328125;0
1579710302.9612837;-44.96685791015625;0
1579710302.9612901;-37.998046875;0
1579710302.961296;-29.80255126953125;0
1579710302.9613035;-20.530059814453125;0
1579710302.96131;-10.61761474609375;0
1579710302.961316;-0.6968994140625;0
1579710303.1350985;8.42816162109375;0
1579710303.1412294;16.040771484375;0
1579710303.1412468;21.632568359375;0
1579710303.1412625;25.161407470703125;0
1579710303.1412756;27.047088623046875;0
1579710303.1412873;27.99169921875;0
1579710303.1412992;28.796234130859375;0
1579710303.1413102;30.0682373046875;0
1579710303.141322;32.043121337890625;0
1579710303.1413338;34.52569580078125;0
1579710303.1413455;37.08360290527344;0
1579710303.255264;39.20550537109375;0
1579710303.2606385;40.530487060546875;0
1579710303.2606504;41.01226806640625;0
1579710303.2606575;40.7677001953125;0
1579710303.2606661;40.09358215332031;0
1579710303.260673;39.29908752441406;0
1579710303.2606816;38.58601379394531;0
1579710303.2606945;38.07142639160156;0
1579710303.2607045;37.79585266113281;0
1579710303.2607112;37.79289245605469;0
1579710303.2607174;38.102569580078125;0
1579710303.4574726;38.79997253417969;0
1579710303.4622216;39.83491516113281;0
1579710303.4622505;41.07139587402344;0
1579710303.4622655;42.191986083984375;0
1579710303.4622788;42.79917907714844;0
1579710303.4622924;42.5531005859375;0
1579710303.4623046;41.23997497558594;0
1579710303.462317;38.913543701171875;0
1579710303.4623291;35.775596618652344;0
1579710303.4623408;32.15135955810547;0
1579710303.4623532;28.309532165527344;0
1579710303.6247444;24.525962829589844;0
1579710303.6323037;21.03772735595703;0
1579710303.6323283;18.072296142578125;0
1579710303.6323547;15.855964660644531;0
1579710303.632371;14.505729675292969;0
1579710303.6323853;13.897193908691406;0
1579710303.6323993;13.693641662597656;0
1579710303.6324134;13.487625122070312;0
1579710303.632427;12.866569519042969;0
1579710303.6368945;11.703132629394531;0
1579710303.6369119;10.060867309570312;0
1579710303.786619;8.135089874267578;0
1579710303.7943397;6.269477844238281;0
1579710303.7943518;4.761543273925781;0
1579710303.7943616;3.8998374938964844;0
1579710303.7943752;3.9023818969726562;0
1579710303.7943904;4.906230926513672;0
1579710303.794398;6.873989105224609;0
1579710303.7944045;9.554218292236328;0
1579710303.7946978;12.411319732666016;0
1579710303.7947056;14.804752349853516;0
1579710303.794712;16.222471237182617;0
1579710303.9253461;16.370996475219727;0
1579710303.929283;15.304569244384766;0
1579710303.9293141;13.32703971862793;0
1579710303.9293306;10.817930221557617;0
1579710303.9293437;8.107475280761719;0
1579710303.929355;5.339324951171875;0
1579710303.9293668;2.5523080825805664;0
1579710303.9369357;-0.28296756744384766;0
1579710303.9369488;-3.1131181716918945;0
1579710303.9369566;-5.908624649047852;0
1579710303.9369633;-8.633586883544922;0
1579710304.1131816;-11.297889709472656;0
1579710304.1131952;-13.882417678833008;0
1579710304.1216826;-16.30002784729004;0
1579710304.1216958;-18.2841739654541;0
1579710304.1217039;-19.416397094726562;0
1579710304.1217186;-19.140403747558594;0
1579710304.1217294;-16.870033264160156;0
1579710304.1217399;-12.231700897216797;0
1579710304.1217515;-5.119655609130859;0
1579710304.1217625;4.194509506225586;0
1579710304.1217735;15.084955215454102;0
1579710304.1294398;0.20491427183151245;0
1579710304.1294606;0.20619499683380127;0
1579710304.1294734;0.20619499683380127;0
1579710304.1294851;0.20619499683380127;0
1579710304.129496;0.20619499683380127;0
1579710304.1295068;0.21003712713718414;0
1579710304.295876;31.43000030517578;0
1579710304.313167;31.43000030517578;0
1579710304.3131893;31.43000030517578;0
1579710304.3132048;31.43000030517578;0
1579710304.3132186;31.43000030517578;0
1579710304.3132327;31.43000030517578;0
1579710304.3132463;31.43000030517578;0
1579710304.3132606;31.43000030517578;0
1579710304.313357;1.078174352645874;0
1579710304.3133712;26.713748931884766;0
1579710304.3133848;38.23603439331055;0
1579710304.3133976;49.02609634399414;0
1579710304.3134115;58.73060989379883;0
1579710304.313425;67.2776870727539;0
1579710304.3134382;74.70264434814453;0
1579710304.3134518;81.06903076171875;0
1579710304.3134654;86.4482650756836;0
1579710304.3134787;90.92160034179688;0
1579710304.3134925;94.71809387207031;0
1579710304.3135064;98.20804595947266;0
1579710304.475538;101.85932159423828;0
1579710304.4855938;105.96146392822266;0
1579710304.4856188;110.65160369873047;0
1579710304.485636;115.84113311767578;0
1579710304.4856515;121.37361145019531;0
1579710304.4856665;127.17474365234375;0
1579710304.485683;133.12692260742188;0
1579710304.4856982;139.11195373535156;0
1579710304.4857137;144.7198486328125;0
1579710304.4857283;149.2793426513672;0
1579710304.4857426;151.9248809814453;0
1579710304.6756916;151.8486785888672;0
1579710304.6823454;148.56430053710938;0
1579710304.682358;142.01837158203125;0
1579710304.6823986;132.599853515625;0
1579710304.6824064;120.89881134033203;0
1579710304.6824129;107.61288452148438;0
1579710304.6824198;93.29298400878906;0
1579710304.6824255;78.3661880493164;0
1579710304.6824315;63.13671875;0
1579710304.6824377;47.89787292480469;0
1579710304.6824436;32.983917236328125;0
1579710304.7949462;18.70086669921875;0
1579710304.7994707;5.271392822265625;0
1579710304.7994995;-7.301666259765625;0
1579710304.7995174;-19.026580810546875;0
1579710304.799541;-29.8734130859375;0
1579710304.7995536;-39.563446044921875;0
1579710304.7995656;-47.62811279296875;0
1579710304.7995782;-53.53611755371094;0
1579710304.7995899;-56.935546875;0
1579710304.799602;-57.99931335449219;0
1579710304.7996483;-57.249908447265625;0
1579710304.975449;-55.50238037109375;0
1579710304.9863083;-53.40777587890625;0
1579710304.9863224;-51.346710205078125;0
1579710304.986332;-49.34735107421875;0
1579710304.986339;-47.356414794921875;0
1579710304.9863462;-45.422271728515625;0
1579710304.986354;-43.607208251953125;0
1579710304.9863665;-41.950408935546875;0
1579710304.986376;-40.252685546875;0
1579710304.9863825;-38.0826416015625;0
1579710304.9863894;-34.99432373046875;0
1579710305.1947317;-30.710968017578125;0
1579710305.202835;-25.39013671875;0
1579710305.2028615;-19.45941162109375;0
1579710305.20288;-13.641265869140625;0
1579710305.2028964;-8.567596435546875;0
1579710305.202911;-4.7281494140625;0
1579710305.2029262;-2.379608154296875;0
1579710305.8787627;4.89569091796875;0
1579710305.87877;5.18817138671875;0
1579710305.878776;5.27728271484375;0
1579710305.878782;5.3682861328125;0
1579710306.005279;5.62548828125;0
1579710306.0152752;6.1893310546875;0
1579710306.0152948;6.99517822265625;0
1579710306.0153093;7.8671875;0
1579710306.0153234;8.5064697265625;0
1579710306.0153372;8.49212646484375;0
1579710306.01535;7.50457763671875;0
1579710306.0153625;5.44390869140625;0
1579710306.0153756;2.5439453125;0
1579710306.015398;-0.7425537109375;0
1579710306.0154097;-3.77020263671875;0
1579710306.1945384;-6.04864501953125;0
1579710306.194551;-7.3946533203125;0
1579710306.1945622;-7.8819580078125;0
1579710306.1945727;-7.88812255859375;0
1579710306.1945827;-7.89190673828125;0
1579710306.194593;-8.28790283203125;0
1579710306.1946034;-9.32659912109375;0
1579710306.1946137;-11.1207275390625;0
1579710306.194624;-13.494384765625;0
1579710306.1946342;-16.1126708984375;0
1579710306.1946478;-18.63641357421875;0
1579710306.2648523;31.489999771118164;0
1579710306.2712128;31.489999771118164;0
1579710306.2712343;31.489999771118164;0
1579710306.27125;31.489999771118164;0
1579710306.2712638;31.469999313354492;0
1579710306.2712777;31.469999313354492;0
1579710306.2712905;31.469999313354492;0
1579710306.2713041;31.469999313354492;0
1579710306.3750174;-20.7237548828125;0
1579710306.380766;-22.2506103515625;0
1579710306.3807957;-23.31927490234375;0
1579710306.38081;-24.18115234375;0
1579710306.3808239;-25.0460205078125;0
1579710306.3808343;-25.88818359375;0
1579710306.380844;-26.3424072265625;0
1579710306.380853;-25.87060546875;0
1579710306.3808606;-23.99810791015625;0
1579710306.3808727;-20.56964111328125;0
1579710306.3808944;-15.90057373046875;0
1579710306.584838;-10.601318359375;0
1579710306.5901594;-5.404296875;0
1579710306.590172;-0.89288330078125;0
1579710306.5901802;2.65875244140625;0
1579710306.590187;5.23052978515625;0
1579710306.5901937;6.99127197265625;0
1579710306.5905826;8.16778564453125;0
1579710306.5905926;9.0384521484375;0
1579710306.5905988;9.8262939453125;0
1579710306.5906048;10.7091064453125;0
1579710306.590612;11.84808349609375;0
1579710306.7160385;13.1241455078125;0
1579710306.7317924;14.29559326171875;0
1579710306.7318149;14.97149658203125;0
1579710306.731831;14.7843017578125;0
1579710306.731846;13.537353515625;0
1579710306.73186;11.3460693359375;0
1579710306.7318733;8.62457275390625;0
1579710306.7318864;5.8294677734375;0
1579710306.7318995;3.389404296875;0
1579710306.7319126;1.29864501953125;0
1579710306.7319262;-0.80731201171875;0
1579710306.8871949;-3.51348876953125;0
1579710306.8932831;-7.31396484375;0
1579710306.8932955;-12.28900146484375;0
1579710306.8933027;-17.91357421875;0
1579710306.893309;-23.114013671875;0
1579710306.893315;-26.4381103515625;0
1579710306.893321;-26.5301513671875;0
1579710306.8933265;-22.5233154296875;0
1579710306.8933327;-14.39093017578125;0
1579710306.8933387;-3.115478515625;0
1579710306.8933444;9.4647216796875;0
1579710307.065222;21.00408935546875;0
1579710307.0714288;29.22747802734375;0
1579710307.0714486;32.47833251953125;0
1579710307.0714614;30.20037841796875;0
1579710307.0714738;23.05950927734375;0
1579710307.0714862;12.71514892578125;0
1579710307.0714974;1.56085205078125;0
1579710307.0715086;-7.884765625;0
1579710307.0715206;-13.51922607421875;0
1579710307.071533;-14.10150146484375;0
1579710307.0715442;-9.66143798828125;0
1579710307.1255357;0.21259856224060059;0
1579710307.1315947;0.2138792723417282;0
1579710307.1316164;0.21259856224060059;0
1579710307.1316803;0.21644070744514465;0
1579710307.1316946;0.21772141754627228;0
1579710307.131714;0.2190021276473999;0
1579710307.2248821;-1.46209716796875;0
1579710307.2324133;8.24591064453125;0
1579710307.2324414;16.92657470703125;0
1579710307.232456;22.4505615234375;0
1579710307.2324677;23.6949462890625;0
1579710307.2324796;20.799560546875;0
1579710307.2324924;14.98583984375;0
1579710307.2331588;8.1546630859375;0
1579710307.2331724;2.24468994140625;0
1579710307.233185;-1.24072265625;0
1579710307.2446404;-1.52587890625;0
1579710307.3850777;1.35528564453125;0
1579710307.393603;6.69525146484375;0
1579710307.393624;13.33245849609375;0
1579710307.3936374;19.88232421875;0
1579710307.3936496;25.11810302734375;0
1579710307.393661;28.1661376953125;0
1579710307.393672;28.707763671875;0
1579710307.393682;26.977783203125;0
1579710307.3936927;23.6103515625;0
1579710307.393703;19.4019775390625;0
1579710307.3937142;15.09185791015625;0
1579710307.6095014;11.16302490234375;0
1579710307.6240714;7.7305908203125;0
1579710307.6240923;4.71539306640625;0
1579710307.6241088;1.97540283203125;0
1579710307.624123;-0.58685302734375;0
1579710307.6241374;-2.933349609375;0
1579710307.6241512;-4.8951416015625;0
1579710307.6241643;-6.36285400390625;0
1579710307.6241786;-7.2435302734375;0
1579710307.6241918;-7.58343505859375;0
1579710307.6242049;-7.48773193359375;0
1579710307.7147665;-7.112060546875;0
1579710307.7249105;-6.6480712890625;0
1579710307.724981;-6.32916259765625;0
1579710307.7250128;-6.298828125;0
1579710307.7250364;-6.59381103515625;0
1579710307.725061;-7.2005615234375;0
1579710307.7250826;-7.96429443359375;0
1579710307.7251;-8.7384033203125;0
1579710307.725122;-9.39190673828125;0
1579710307.7251515;-9.893798828125;0
1579710307.7251892;-10.363525390625;0
1579710307.9164255;-10.94158935546875;0
1579710307.9244878;-11.72271728515625;0
1579710307.9245045;-12.73284912109375;0
1579710307.9245172;-13.94512939453125;0
1579710307.9245284;-15.2896728515625;0
1579710307.9245398;-16.73980712890625;0
1579710307.9245503;-18.2567138671875;0
1579710307.9245608;-19.73614501953125;0
1579710307.924572;-21.02947998046875;0
1579710307.924582;-22.02374267578125;0
1579710307.9245927;-22.5814208984375;0
1579710308.0558293;-22.686767578125;0
1579710308.0626051;-22.4171142578125;0
1579710308.0626261;-22.010009765625;0
1579710308.6276636;0.22284427285194397;0
1579710308.627678;0.2241249829530716;0
1579710308.6276894;0.22668641805648804;0
1579710308.6277008;0.22284427285194397;0
1579710308.795013;30.953857421875;0
1579710308.8053346;32.38482666015625;0
1579710308.8053455;34.42926025390625;0
1579710308.8053532;37.0264892578125;0
1579710308.8053594;39.9736328125;0
1579710308.8053656;42.786865234375;0
1579710308.805372;44.82489013671875;0
1579710308.805378;45.530517578125;0
1579710308.8053832;44.660888671875;0
1579710308.8053894;42.37664794921875;0
1579710308.8053946;39.2208251953125;0
1579710308.9149265;35.9564208984375;0
1579710308.9216578;33.1427001953125;0
1579710308.9216743;31.04119873046875;0
1579710308.9216828;29.54962158203125;0
1579710308.9216902;28.22369384765625;0
1579710308.9216971;26.4171142578125;0
1579710308.9217093;23.29046630859375;0
1579710308.9217167;17.84686279296875;0
1579710308.9217231;9.075439453125;0
1579710308.92173;-3.50714111328125;0
1579710308.9217365;-19.550048828125;0
1579710309.1360466;-37.59454345703125;0
1579710309.143102;-55.3359375;0
1579710309.143123;-70.37939453125;0
1579710309.1431348;-80.972900390625;0
1579710309.1431432;-86.5511474609375;0
1579710309.1431623;-87.68963623046875;0
1579710309.143169;-85.61126708984375;0
1579710309.1431746;-81.420654296875;0
1579710309.1431801;-75.781982421875;0
1579710309.1431897;-68.9300537109375;0
1579710309.1432004;-60.846923828125;0
1579710309.3164492;-51.906982421875;0
1579710309.322755;-42.8004150390625;0
1579710309.322773;-34.49609375;0
1579710309.3227863;-27.7568359375;0
1579710309.3227978;-22.8968505859375;0
1579710309.3228118;-19.65838623046875;0
1579710309.322824;-17.42340087890625;0
1579710309.3228354;-15.52825927734375;0
1579710309.3228464;-13.52484130859375;0
1579710309.3228574;-11.35516357421875;0
1579710309.3228686;-9.1419677734375;0
1579710309.454816;-7.121337890625;0
1579710309.4598792;-5.41046142578125;0
1579710309.4598897;-4.00439453125;0
1579710309.4601803;-2.74468994140625;0
1579710309.4601882;-1.46368408203125;0
1579710309.4601982;-0.0738525390625;0
1579710309.460209;1.46771240234375;0
1579710309.4602149;3.10186767578125;0
1579710309.4602203;4.75323486328125;0
1579710309.460226;6.3662109375;0
1579710309.4602315;7.86016845703125;0
1579710309.625294;9.24029541015625;0
1579710309.6295626;10.51031494140625;0
1579710309.6295831;11.66693115234375;0
1579710309.6296186;12.601318359375;0
1579710309.6296368;13.08612060546875;0
1579710309.6296508;12.82098388671875;0
1579710309.6364155;11.62286376953125;0
1579710309.6364274;9.53656005859375;0
1579710309.6364353;6.9361572265625;0
1579710309.636443;4.409423828125;0
1579710309.6364493;2.48974609375;0
1579710309.785102;1.52471923828125;0
1579710309.7928953;1.43994140625;0
1579710309.792921;1.8553466796875;0
1579710309.7929397;2.23980712890625;0
1579710309.792956;2.1676025390625;0
1579710309.7929726;1.456787109375;0
1579710309.7929964;0.21441650390625;0
1579710309.793026;-1.27252197265625;0
1579710309.793048;-2.7713623046875;0
1579710309.7930706;-4.12945556640625;0
1579710309.793097;-5.49749755859375;0
1579710309.964981;-7.02728271484375;0
1579710309.9752936;-8.85052490234375;0
1579710309.9753377;-11.01739501953125;0
1579710309.9753575;-13.37091064453125;0
1579710309.9753716;-15.6875;0
1579710309.9753861;-17.73052978515625;0
1579710309.9754;-19.4107666015625;0
1579710309.9754128;-20.67413330078125;0
1579710309.975425;-21.4700927734375;0
1579710309.9754364;-21.68768310546875;0
1579710309.9754546;-21.0592041015625;0
1579710310.1249232;0.2305285632610321;0
1579710310.1321466;0.22796712815761566;0
1579710310.1321595;0.23308998346328735;0
1579710310.1321673;0.22924785315990448;0
1579710310.1321745;0.23693212866783142;0
1579710310.1321807;0.23693212866783142;0
1579710310.1321893;-19.31512451171875;0
1579710310.132196;-16.28424072265625;0
1579710310.132202;-12.0936279296875;0
1579710310.1322083;-7.148193359375;0
1579710310.1325355;-2.091796875;0
1579710310.1325443;2.51971435546875;0
1579710310.132551;6.260986328125;0
1579710310.1325562;9.04364013671875;0
1579710310.1325622;10.98779296875;0
1579710310.1325684;12.293212890625;0
1579710310.1325743;13.2081298828125;0
1579710310.3070343;31.489999771118164;0
1579710310.3183722;31.489999771118164;0
1579710310.318394;31.489999771118164;0
1579710310.318412;31.489999771118164;0
1579710310.3184278;31.510000228881836;0
1579710310.3184438;31.510000228881836;0
1579710310.318459;31.510000228881836;0
1579710310.318474;31.510000228881836;0
1579710310.3185759;13.8406982421875;0
1579710310.31859;14.2503662109375;0
1579710310.3186045;14.511962890625;0
1579710310.31862;14.82086181640625;0
1579710310.318635;15.24359130859375;0
1579710310.3186486;15.8865966796875;0
1579710310.318662;16.726806640625;0
1579710310.3186762;17.61956787109375;0
1579710310.3186905;18.44195556640625;0
1579710310.3187041;19.0340576171875;0
1579710310.3187182;19.31927490234375;0
1579710310.493678;19.31597900390625;0
1579710310.493689;19.10369873046875;0
1579710310.4936962;18.7005615234375;0
1579710310.4937024;18.1531982421875;0
1579710310.4937086;17.48883056640625;0
1579710310.4937143;16.6593017578125;0
1579710310.4937205;15.66571044921875;0
1579710310.4937263;14.44976806640625;0
1579710310.4937322;12.982666015625;0
1579710310.493738;11.32958984375;0
1579710310.4937444;9.61187744140625;0
1579710310.672203;8.02734375;0
1579710310.6801603;6.77020263671875;0
1579710310.680177;5.9669189453125;0
1579710310.6801896;5.51275634765625;0
1579710310.680209;5.21856689453125;0
1579710310.68022;4.8702392578125;0
1579710310.6802304;4.301025390625;0
1579710310.680241;3.48907470703125;0
1579710310.6802514;2.55804443359375;0
1579710310.6802614;1.6534423828125;0
1579710310.6802723;0.86578369140625;0
1579710310.8959758;0.19659423828125;0
1579710310.9040146;-0.50653076171875;0
1579710310.9040308;-1.29443359375;0
1579710310.9043643;-2.1988525390625;0
1579710310.9043722;-3.20440673828125;0
1579710310.9043853;-4.25811767578125;0
1579710310.904392;-5.40423583984375;0
1579710310.9044018;-6.69952392578125;0
1579710310.9044118;-8.253662109375;0
1579710310.904422;-10.098876953125;0
1579710310.904435;-12.17047119140625;0
1579710310.9777138;-14.31414794921875;0
1579710310.9838922;-16.3929443359375;0
1579710310.983908;-18.41021728515625;0
1579710310.9839168;-20.42132568359375;0
1579710310.9839237;-22.5230712890625;0
1579710310.98393;-24.68896484375;0
1579710310.9839363;-26.6343994140625;0
1579710310.9839425;-27.926025390625;0
1579710310.9839487;-28.03448486328125;0
1579710310.983955;-26.572998046875;0
1579710310.983961;-23.51568603515625;0
1579710311.1947079;-19.204345703125;0
1579710311.2051501;-14.15191650390625;0
1579710311.2051687;-8.98272705078125;0
1579710311.205178;-4.2493896484375;0
1579710311.2051845;-0.197021484375;0
1579710311.205192;3.04766845703125;0
1579710311.2051985;5.5916748046875;0
1579710311.2052052;7.57208251953125;0
1579710311.2052107;9.2122802734375;0
1579710311.205217;10.6336669921875;0
1579710311.205223;11.9530029296875;0
1579710311.3757172;13.1778564453125;0
1579710311.3817976;14.23358154296875;0
1579710311.3818078;15.0262451171875;0
1579710311.3818154;15.41278076171875;0
1579710311.3818285;15.29779052734375;0
1579710311.3818362;14.6383056640625;0
1579710311.3818424;13.5875244140625;0
1579710311.3818483;12.357177734375;0
1579710311.3818536;11.234130859375;0
1579710311.381859;10.475341796875;0
1579710311.3818653;10.15863037109375;0
1579710311.5161796;10.223388671875;0
1579710311.5238767;10.44134521484375;0
1579710311.523896;10.54376220703125;0
1579710311.5239153;10.30340576171875;0
1579710311.5239275;9.67657470703125;0
1579710311.5239391;8.68304443359375;0
1579710311.523951;7.4345703125;0
1579710311.5239623;6.1072998046875;0
1579710311.5239727;4.7786865234375;0
1579710311.523984;3.58673095703125;0
1579710311.5244503;2.596923828125;0
1579710311.6149788;0.23949356377124786;0
1579710311.62294;0.23437070846557617;0
1579710311.622959;0.2420549839735031;0
1579710311.6229725;0.23437070846557617;0
1579710311.6229842;0.23693212866783142;0
1579710311.6229956;0.23949356377124786;0
1579710311.6954136;1.97833251953125;0
1579710311.7048612;1.879638671875;0
1579710311.704892;2.35577392578125;0
1579710311.704906;3.3248291015625;0
1579710311.7049184;4.51434326171875;0
1579710311.70493;5.55621337890625;0
1579710311.704942;6.0821533203125;0
1579710311.7049541;5.92071533203125;0
1579710311.7049656;5.084228515625;0
1579710311.704977;3.73724365234375;0
1579710311.7049894;2.125244140625;0
1579710311.8555899;0.44525146484375;0
1579710311.8629906;-1.23663330078125;0
1579710311.8630261;-2.90911865234375;0
1579710311.8630452;-4.53570556640625;0
1579710311.8630593;-6.14434814453125;0
1579710311.863073;-7.73095703125;0
1579710311.8630862;-9.41412353515625;0
1579710311.8631032;-11.36041259765625;0
1579710311.8631184;-13.83282470703125;0
1579710311.8631425;-16.95440673828125;0
1579710311.8631566;-20.625;0
1579710312.034623;-24.4873046875;0
1579710312.0412333;-27.9388427734375;0
1579710312.0412471;-30.36590576171875;0
1579710312.0412621;-31.2733154296875;0
1579710312.0412688;-30.499267578125;0
1579710312.0412757;-28.22833251953125;0
1579710312.0412817;-24.8427734375;0
1579710312.0412881;-20.8648681640625;0
1579710312.0412936;-16.7567138671875;0
1579710312.0412993;-12.95623779296875;0
1579710312.0413053;-9.6964111328125;0
1579710312.185107;-7.0784912109375;0
1579710312.2017825;-5.031524658203125;0
1579710312.2018356;-3.385101318359375;0
1579710312.2018747;-1.89263916015625;0
1579710312.2019072;-0.347930908203125;0
1579710312.2019393;1.345703125;0
1579710312.201966;3.1920166015625;0
1579710312.2019904;5.0384521484375;0
1579710312.2020097;6.753387451171875;0
1579710312.2020292;8.19635009765625;0
1579710312.2020493;9.32989501953125;0
1579710312.264724;31.489999771118164;0
1579710312.2712882;31.489999771118164;0
1579710312.271307;31.489999771118164;0
1579710312.2713206;31.489999771118164;0
1579710312.271334;31.489999771118164;0
1579710312.271346;31.489999771118164;0
1579710312.2713587;31.489999771118164;0
1579710312.2713819;31.489999771118164;0
1579710312.3645782;10.203887939453125;0
1579710312.3717802;10.850311279296875;0
1579710312.3717973;11.3426513671875;0
1579710312.371809;11.7197265625;0
1579710312.3718216;12.01373291015625;0
1579710312.3718321;12.22467041015625;0
1579710312.371843;12.436920166015625;0
1579710312.3718543;12.64581298828125;0
1579710312.371865;12.8255615234375;0
1579710312.371877;12.986724853515625;0
1579710312.3718889;13.05963134765625;0
1579710312.5507712;13.057220458984375;0
1579710312.5507793;13.0130615234375;0
1579710312.5507865;13.000030517578125;0
1579710312.5588038;13.0865478515625;0
1579710312.5588233;13.300018310546875;0
1579710312.5588367;13.543701171875;0
1579710312.5588498;13.63250732421875;0
1579710312.5588613;13.447509765625;0
1579710312.5588725;12.89508056640625;0
1579710312.5588841;12.007598876953125;0
1579710312.5647383;10.86627197265625;0
1579710312.7249901;9.610626220703125;0
1579710312.7296033;8.24200439453125;0
1579710312.7296157;6.73101806640625;0
1579710312.7296257;5.005035400390625;0
1579710312.7296338;3.068756103515625;0
1579710312.7296407;1.052459716796875;0
1579710312.7296486;-0.86053466796875;0
1579710312.729655;-2.46270751953125;0
1579710312.729662;-3.721832275390625;0
1579710312.7296689;-4.722320556640625;0
1579710312.7296755;-5.663360595703125;0
1579710312.9646585;-6.706512451171875;0
1579710312.9712443;-7.89703369140625;0
1579710312.9712691;-9.16851806640625;0
1579710312.9712822;-10.398193359375;0
1579710312.9713962;-11.54156494140625;0
1579710312.9714153;-12.698272705078125;0
1579710312.9714282;-13.993133544921875;0
1579710312.9714394;-15.517578125;0
1579710312.971451;-17.21038818359375;0
1579710312.9714632;-18.94915771484375;0
1579710312.9720187;-20.59942626953125;0
1579710313.0511208;-22.112518310546875;0
1579710313.0575392;-23.54095458984375;0
1579710313.0575514;-24.99212646484375;0
1579710313.0575602;-26.414031982421875;0
1579710313.057568;-27.53826904296875;0
1579710313.057575;-27.870147705078125;0
1579710313.05759;-26.88629150390625;0
1579710313.0575967;-24.347747802734375;0
1579710313.0576031;-20.3631591796875;0
1579710313.0576098;-15.552703857421875;0
1579710313.0576158;-10.6368408203125;0
1579710313.1248841;0.23949356377124786;0
1579710313.1317854;0.23821283876895905;0
1579710313.131808;0.2356514185667038;0
1579710313.131824;0.23821283876895905;0
1579710313.1318386;0.2356514185667038;0
1579710313.1318533;0.23949356377124786;0
1579710313.224663;-6.318267822265625;0
1579710313.2319918;-3.012725830078125;0
1579710313.2320256;-0.739501953125;0
1579710313.2320483;0.727386474609375;0
1579710313.232067;1.788421630859375;0
1579710313.232082;2.6895751953125;0
1579710313.2320995;3.5509033203125;0
1579710313.2321153;4.316162109375;0
1579710313.232129;4.921173095703125;0
1579710313.2321393;5.34759521484375;0
1579710313.232149;5.75494384765625;0
1579710313.4457645;6.374664306640625;0
1579710313.4542863;7.415374755859375;0
1579710313.4543061;8.869537353515625;0
1579710313.45432;10.54925537109375;0
1579710313.4543314;12.131103515625;0
1579710313.4543443;13.294647216796875;0
1579710313.454355;13.962158203125;0
1579710313.454367;14.27227783203125;0
1579710313.4543786;14.477752685546875;0
1579710313.4543905;14.756744384765625;0
1579710313.4544065;15.07037353515625;0
1579710313.565102;15.318145751953125;0
1579710313.577591;15.343475341796875;0
1579710313.5776074;15.094970703125;0
1579710313.5776203;14.567413330078125;0
1579710313.5776317;13.864288330078125;0
1579710313.5776432;13.084686279296875;0
1579710313.5776544;12.263031005859375;0
1579710313.5776658;11.4925537109375;0
1579710313.5776765;10.783905029296875;0
1579710313.5776875;10.228240966796875;0
1579710313.5776997;9.901702880859375;0
1579710314.285867;31.510000228881836;0
1579710314.4259362;8.715576171875;0
1579710314.4370577;9.922088623046875;0
1579710314.4370759;11.205352783203125;0
1579710314.4370883;12.582733154296875;0
1579710314.437101;13.98846435546875;0
1579710314.4371119;15.300689697265625;0
1579710314.4371223;16.4224853515625;0
1579710314.4371326;17.3514404296875;0
1579710314.4371438;18.100494384765625;0
1579710314.437154;18.75439453125;0
1579710314.4371643;19.33447265625;0
1579710314.6141617;19.80126953125;0
1579710314.6197495;19.997772216796875;0
1579710314.6197789;19.819671630859375;0
1579710314.619794;19.20892333984375;0
1579710314.619807;18.202545166015625;0
1579710314.619821;16.96392822265625;0
1579710314.626;15.611572265625;0
1579710314.6260428;14.294708251953125;0
1579710314.6260607;13.0888671875;0
1579710314.6260765;12.012725830078125;0
1579710314.626091;11.073699951171875;0
1579710314.6261067;0.23821283876895905;0
1579710314.6261213;0.23821283876895905;0
1579710314.6261454;0.2356514185667038;0
1579710314.6261613;0.23821283876895905;0
1579710314.6261754;0.2356514185667038;0
1579710314.6261897;0.23693212866783142;0
1579710314.8047671;10.233428955078125;0
1579710314.8210738;9.469329833984375;0
1579710314.8210866;8.723526000976562;0
1579710314.821095;7.9454193115234375;0
1579710314.821102;7.0909881591796875;0
1579710314.8211086;6.150146484375;0
1579710314.8211145;5.0687255859375;0
1579710314.8211217;3.849517822265625;0
1579710314.8211281;2.532257080078125;0
1579710314.8211343;1.14599609375;0
1579710314.821141;-0.191864013671875;0
1579710315.0210838;-1.3815765380859375;0
1579710315.0275068;-2.296722412109375;0
1579710315.0275397;-2.9818572998046875;0
1579710315.027556;-3.5191802978515625;0
1579710315.0275707;-4.102691650390625;0
1579710315.027584;-4.890869140625;0
1579710315.027596;-5.978851318359375;0
1579710315.0276089;-7.34906005859375;0
1579710315.027685;-8.883087158203125;0
1579710315.0277047;-10.4525146484375;0
1579710315.0277183;-11.9700927734375;0
1579710315.1168272;-13.434860229492188;0
1579710315.1235652;-14.975357055664062;0
1579710315.1235812;-16.77789306640625;0
1579710315.1235914;-19.069503784179688;0
1579710315.1235998;-21.862640380859375;0
1579710315.1236084;-25.054489135742188;0
1579710315.123615;-28.261032104492188;0
1579710315.1236646;-30.8968505859375;0
1579710315.1236734;-32.434051513671875;0
1579710315.1236813;-32.46702575683594;0
1579710315.1236923;-30.924362182617188;0
1579710315.3151531;-28.035430908203125;0
1579710315.3221118;-24.324691772460938;0
1579710315.3221252;-20.38055419921875;0
1579710315.3221333;-16.693954467773438;0
1579710315.3221474;-13.619766235351562;0
1579710315.3221552;-11.266036987304688;0
1579710315.322163;-9.601760864257812;0
1579710315.3221698;-8.42633056640625;0
1579710315.3221765;-7.495025634765625;0
1579710315.3221834;-6.5680084228515625;0
1579710315.3221905;-5.6254730224609375;0
1579710315.515;-4.7191314697265625;0
1579710315.52178;-4.150299072265625;0
1579710315.521799;-4.310333251953125;0
1579710315.5218122;-5.502593994140625;0
1579710315.5218248;-7.819000244140625;0
1579710315.5218372;-11.055648803710938;0
1579710315.5218492;-14.77447509765625;0
1579710315.5218608;-18.381210327148438;0
1579710315.5218732;-21.389236450195312;0
1579710315.5218844;-23.506103515625;0
1579710315.5218964;-24.641311645507812;0
1579710315.6355426;-25.108108520507812;0
1579710315.6409383;-25.365554809570312;0
1579710315.640949;-25.954757690429688;0
1579710315.6409566;-27.229568481445312;0
1579710315.640963;-29.259521484375;0
1579710315.6409698;-31.786209106445312;0
1579710315.6409764;-34.24763488769531;0
1579710315.6409826;-36.019805908203125;0
1579710315.6409883;-36.66587829589844;0
1579710315.640994;-36.04841613769531;0
1579710315.6410003;-34.34630584716797;0
1579710315.8148506;-31.97985076904297;0
1579710315.8265617;-29.506088256835938;0
1579710315.8265765;-27.40845489501953;0
1579710315.8265858;-26.11664581298828;0
1579710315.8265936;-25.819061279296875;0
1579710315.8266013;-26.54107666015625;0
1579710315.8266084;-28.26445770263672;0
1579710315.8269253;-30.981597900390625;0
1579710315.8269336;-34.76765441894531;0
1579710315.8269396;-39.74339294433594;0
1579710315.8269458;-45.945709228515625;0
1579710315.975418;-53.09605407714844;0
1579710315.988524;-60.437286376953125;0
1579710315.988553;-66.82979583740234;0
1579710315.9885724;-70.92688751220703;0
1579710315.9885893;-71.66395568847656;0
1579710315.9886053;-68.63922882080078;0
1579710315.9886272;-62.14072036743164;0
1579710315.9886518;-53.315303802490234;0
1579710315.9886754;-43.909305572509766;0
1579710315.9887;-36.01353073120117;0
1579710315.9887125;-31.685794830322266;0
1579710316.1157334;0.2356514185667038;0
1579710316.1218793;0.24333569407463074;0
1579710316.121904;0.2420549839735031;0
1579710316.1219206;0.2407742738723755;0
1579710316.1219356;0.24461641907691956;0
1579710316.1219501;0.23949356377124786;0
1579710316.155016;-32.50296401977539;0
1579710316.1603498;-39.010276794433594;0
1579710316.1603763;-50.35905456542969;0
1579710316.1603963;-64.49786376953125;0
1579710316.1604137;-78.72489929199219;0
1579710316.1604316;-90.57969665527344;0
1579710316.160447;-98.57083892822266;0
1579710316.1604626;-102.41950225830078;0
1579710316.1604846;-102.576171875;0
1579710316.1604986;-99.52493286132812;0
1579710316.1605124;-93.17672729492188;0
1579710316.275386;31.510000228881836;0
1579710316.28063;31.510000228881836;0
1579710316.2806413;31.510000228881836;0
1579710316.2806487;31.510000228881836;0
1579710316.2806559;31.510000228881836;0
1579710316.280662;31.510000228881836;0
1579710316.280668;31.510000228881836;0
1579710316.2806737;31.510000228881836;0
1579710316.3153007;-82.89625549316406;0
1579710316.3250146;-68.04661560058594;0
1579710316.3250391;-48.78700256347656;0
1579710316.3250575;-26.407989501953125;0
1579710316.3250744;-3.11865234375;0
1579710316.3250904;18.815383911132812;0
1579710316.325106;38.11393737792969;0
1579710316.3251226;1.0625486373901367;0
1579710316.325138;54.97784423828125;0
1579710316.3251534;70.81292724609375;0
1579710316.3251686;87.36581420898438;0
1579710316.325786;105.54367065429688;0
1579710316.5020652;124.70880126953125;0
1579710316.502079;142.7490234375;0
1579710316.5020914;156.80795288085938;0
1579710316.502103;164.410400390625;0
1579710316.5021155;164.20657348632812;0
1579710316.5021276;156.36471557617188;0
1579710316.5021398;142.05413818359375;0
1579710316.5021539;123.03472900390625;0
1579710316.5021665;101.00289916992188;0
1579710316.5021794;77.56585693359375;0
1579710316.5021915;54.27862548828125;0
1579710316.6852512;32.69000244140625;0
1579710316.6852677;14.42767333984375;0
1579710316.6852815;0.84716796875;0
1579710316.6852956;-7.290313720703125;0
1579710316.6853104;-10.070159912109375;0
1579710316.6853251;-8.316070556640625;0
1579710316.685338;-3.4329833984375;0
1579710316.6853514;3.01239013671875;0
1579710316.685365;9.75634765625;0
1579710316.6853793;15.932708740234375;0
1579710316.6853936;21.30450439453125;0
1579710316.856441;25.986328125;0
1579710316.8648434;30.182525634765625;0
1579710316.8648648;34.0357666015625;0
1579710316.8648791;37.5567626953125;0
1579710316.8648925;40.6097412109375;0
1579710316.8649082;42.97882080078125;0
1579710316.8649218;44.63995361328125;0
1579710316.8649352;45.684814453125;0
1579710316.8649483;46.3096923828125;0
1579710316.8649614;46.6876220703125;0
1579710316.8649745;46.80181884765625;0
1579710317.0867364;46.52716064453125;0
1579710317.0959103;45.6121826171875;0
1579710317.095929;43.9400634765625;0
1579710317.0959454;41.50921630859375;0
1579710317.095958;38.59283447265625;0
1579710317.0959694;35.451904296875;0
1579710317.0959816;32.36871337890625;0
1579710317.0959916;29.4046630859375;0
1579710317.096011;26.53192138671875;0
1579710317.0960228;23.61798095703125;0
1579710317.0960343;20.57598876953125;0
1579710317.1650941;17.35308837890625;0
1579710317.1719837;13.9058837890625;0
1579710317.1719978;10.22113037109375;0
1579710317.1720054;6.21173095703125;0
1579710317.172012;1.880126953125;0
1579710317.172019;-2.72113037109375;0
1579710317.1723144;-7.44085693359375;0
1579710317.172324;-12.11334228515625;0
1579710317.1723304;-16.70172119140625;0
1579710317.1723363;-21.3155517578125;0
1579710317.1723425;-26.15777587890625;0
1579710317.3847895;-31.46441650390625;0
1579710317.3946128;-37.17529296875;0
1579710317.3946388;-42.7955322265625;0
1579710317.3946722;-47.40557861328125;0
1579710317.394689;-50.041748046875;0
1579710317.3947053;-49.89410400390625;0
1579710317.3947196;-46.7060546875;0
1579710317.394734;-40.80615234375;0
1579710317.3947468;-33.027099609375;0
1579710317.3947604;-24.453369140625;0
1579710317.3947835;-16.096435546875;0
1579710317.565119;-8.71826171875;0
1579710317.5696833;-2.64190673828125;0
1579710317.5696971;2.09808349609375;0
1579710317.5697052;5.76312255859375;0
1579710317.5697129;8.65106201171875;0
1579710317.5697203;11.0205078125;0
1579710317.569728;12.98388671875;0
1579710317.5697381;14.60064697265625;0
1579710317.5697446;15.88555908203125;0
1579710317.569751;16.885986328125;0
1579710317.5697575;17.728515625;0
1579710317.6248503;0.2420549839735031;0
1579710317.6353521;0.2407742738723755;0
1579710317.6353633;0.2420549839735031;0
1579710317.6353703;0.2407742738723755;0
1579710317.6353772;0.2420549839735031;0
1579710317.635384;0.2407742738723755;0
1579710317.70817;18.45440673828125;0
1579710317.7174802;19.10089111328125;0
1579710317.7175028;19.4873046875;0
1579710317.7175467;19.425537109375;0
1579710317.7175605;18.7197265625;0
1579710317.717618;17.3739013671875;0
1579710317.717635;15.59039306640625;0
1579710317.7176585;13.65234375;0
1579710317.7176733;11.90740966796875;0
1579710317.717687;10.68084716796875;0
1579710317.7177002;10.25848388671875;0
1579710317.8755682;10.7620849609375;0
1579710317.881588;12.21630859375;0
1579710317.8816166;14.52105712890625;0
1579710317.8816354;17.38311767578125;0
1579710317.881651;20.39935302734375;0
1579710317.8816652;23.1214599609375;0
1579710317.88168;25.26446533203125;0
1579710317.882279;26.757568359375;0
1579710317.8822982;27.78448486328125;0
1579710317.8969114;28.6593017578125;0
1579710317.8970318;29.56610107421875;0
1579710318.036906;30.62158203125;0
1579710318.0436916;31.736572265625;0
1579710318.0437036;32.8079833984375;0
1579710318.0437186;33.774169921875;0
1579710318.043726;34.69873046875;0
1579710318.043735;35.62506103515625;0
1579710318.0437412;36.57958984375;0
1579710318.0437522;37.41778564453125;0
1579710318.0437627;37.887451171875;0
1579710318.0437691;37.76544189453125;0
1579710318.043775;36.83758544921875;0
1579710318.2245018;35.0982666015625;0
1579710318.2325072;32.6180419921875;0
1579710318.232536;29.6279296875;0
1579710318.2325544;26.25140380859375;0
1579710318.2325685;22.63275146484375;0
1579710318.2325804;18.89166259765625;0
1579710318.2325926;15.09442138671875;0
1579710318.2326033;11.3685302734375;0
1579710318.232614;7.70782470703125;0
1579710318.2326243;4.10174560546875;0
1579710318.2326355;0.3878173828125;0
1579710318.2566857;31.530000686645508;0
1579710318.2675645;31.530000686645508;0
1579710318.2675858;31.530000686645508;0
1579710318.267601;31.530000686645508;0
1579710318.267615;31.530000686645508;0
1579710318.267681;31.530000686645508;0
1579710318.2676964;31.530000686645508;0
1579710318.26771;31.530000686645508;0
1579710318.3755555;-3.6614990234375;0
1579710318.3823175;-8.310546875;0
1579710318.3823843;-13.5897216796875;0
1579710318.3824074;-19.29229736328125;0
1579710318.382423;-24.86480712890625;0
1579710318.3824377;-29.52947998046875;0
1579710318.3824515;-32.5394287109375;0
1579710318.3824744;-33.307861328125;0
1579710318.3824883;-31.550537109375;0
1579710318.3825014;-27.421142578125;0
1579710318.3825157;-21.41522216796875;0
1579710318.55795;-14.2056884765625;0
1579710318.5672126;-6.52325439453125;0
1579710318.567235;1.01739501953125;0
1579710318.5672522;7.97869873046875;0
1579710318.5672736;14.09747314453125;0
1579710318.5672884;19.3929443359375;0
1579710318.5679562;24.00128173828125;0
1579710318.5679734;28.16107177734375;0
1579710318.567987;32.177978515625;0
1579710318.5680006;36.30340576171875;0
1579710318.568014;40.66766357421875;0
1579710318.7398152;45.2017822265625;0
1579710318.7398257;49.72918701171875;0
1579710318.7398322;53.97186279296875;0
1579710318.7398381;57.73675537109375;0
1579710318.7439127;61.02606201171875;0
1579710318.7439234;64.03802490234375;0
1579710318.7439308;67.1026611328125;0
1579710318.7439377;70.40826416015625;0
1579710318.7439437;73.8094482421875;0
1579710318.74395;76.70989990234375;0
1579710318.7439559;78.219482421875;0
1579710318.9152246;77.35302734375;0
1579710318.9230113;73.47430419921875;0
1579710318.923032;66.472412109375;0
1579710318.9230468;56.897216796875;0
1579710318.9230607;45.83074951171875;0
1579710318.923073;34.56732177734375;0
1579710318.923084;24.323486328125;0
1579710318.9230962;15.9749755859375;0
1579710318.9231086;9.95355224609375;0
1579710318.9231193;6.047119140625;0
1579710318.9231312;3.44500732421875;0
1579710319.156205;0.8548583984375;0
1579710319.1651177;-3.21783447265625;0
1579710319.1651285;-9.94073486328125;0
1579710319.1651387;-19.76788330078125;0
1579710319.1651454;-32.13409423828125;0
1579710319.165152;-45.50054931640625;0
1579710319.1651578;-57.7783203125;0
1579710319.1651638;-66.8515625;0
1579710319.1651702;-71.10272216796875;0
1579710319.1651773;-69.82452392578125;0
1579710319.1651833;-63.30389404296875;0
1579710319.1652284;0.2420549839735031;0
1579710319.165235;0.2420549839735031;0
1579710319.165241;0.24461641907691956;0
1579710319.1652472;0.24333569407463074;0
1579710319.1652534;0.24589712917804718;0
1579710319.1652594;0.2420549839735031;0
1579710319.2355604;-52.67584228515625;0
1579710319.2434723;-39.661865234375;0
1579710319.2434947;-26.1591796875;0
1579710319.243512;-13.8890380859375;0
1579710319.2435262;-4.1739501953125;0
1579710319.2435405;2.1259765625;0
1579710319.2435548;4.51422119140625;0
1579710319.244271;2.82861328125;0
1579710319.244291;-2.8973388671875;0
1579710319.2443097;-12.18133544921875;0
1579710319.2443252;-24.14288330078125;0
1579710319.4184985;-37.416748046875;0
1579710319.4252648;-50.44097900390625;0
1579710319.4252758;-61.87994384765625;0
1579710319.4252834;-70.97869873046875;0
1579710319.4252896;-77.7196044921875;0
1579710319.4252963;-82.53692626953125;0
1579710319.4253023;-86.0140380859375;0
1579710319.4253082;-88.42315673828125;0
1579710319.4253163;-89.67156982421875;0
1579710319.4253268;-89.51898193359375;0
1579710319.4253385;-87.67510986328125;0
1579710319.6253119;-84.0928955078125;0
1579710319.6341965;-78.8580322265625;0
1579710319.634217;-72.1072998046875;0
1579710319.6342316;-63.8763427734375;0
1579710319.634245;-54.23828125;0
1579710319.6342628;-43.36517333984375;0
1579710319.6342769;-31.71002197265625;0
1579710319.63429;-20.05352783203125;0
1579710319.634303;-9.23773193359375;0
1579710319.634316;0.0572509765625;0
1579710319.6343298;7.59002685546875;0
1579710319.7549355;13.5179443359375;0
1579710319.7610433;18.411865234375;0
1579710319.7610738;22.75653076171875;0
1579710319.7610915;27.05364990234375;0
1579710319.7611077;31.60418701171875;0
1579710319.7611225;36.467041015625;0
1579710319.7611358;41.554931640625;0
1579710319.76115;46.51287841796875;0
1579710319.761164;51.00091552734375;0
1579710319.7611775;54.63238525390625;0
1579710319.7611916;57.2491455078125;0
1579710319.9591997;58.89691162109375;0
1579710319.964587;59.85675048828125;0
1579710319.9645977;60.48870849609375;0
1579710319.964605;60.91937255859375;0
1579710319.9646115;61.104736328125;0
1579710319.9646175;60.65899658203125;0
1579710319.9646235;59.06146240234375;0
1579710319.9646287;55.9747314453125;0
1579710319.9646347;51.34857177734375;0
1579710319.9646401;45.6851806640625;0
1579710319.9646463;39.94915771484375;0
1579710320.1053596;35.3048095703125;0
1579710320.1143384;32.6400146484375;0
1579710320.1144042;32.31658935546875;0
1579710320.7123408;0.2420549839735031;0
1579710320.712357;0.23821283876895905;0
1579710320.7123713;0.2471778392791748;0
1579710320.712385;0.24461641907691956;0
1579710320.8157008;29.0889892578125;0
1579710320.8228056;31.19403076171875;0
1579710320.822827;33.15069580078125;0
1579710320.8228407;34.38348388671875;0
1579710320.8228524;34.4840087890625;0
1579710320.8228636;33.28271484375;0
1579710320.822874;30.955078125;0
1579710320.8228853;27.9263916015625;0
1579710320.8228967;24.71673583984375;0
1579710320.8229167;21.87738037109375;0
1579710320.8229277;19.7430419921875;0
1579710320.975501;18.42193603515625;0
1579710320.9838939;17.676513671875;0
1579710320.9839132;17.09149169921875;0
1579710320.9839256;16.19476318359375;0
1579710320.9839363;14.662841796875;0
1579710320.9839463;12.46856689453125;0
1579710320.9839556;9.79345703125;0
1579710320.9839652;6.9698486328125;0
1579710320.9839754;4.14111328125;0
1579710320.9839861;1.35626220703125;0
1579710320.9839957;-1.57025146484375;0
1579710321.2145314;-4.84381103515625;0
1579710321.2258444;-8.56890869140625;0
1579710321.22587;-12.65325927734375;0
1579710321.2258868;-16.87335205078125;0
1579710321.2259119;-21.017822265625;0
1579710321.2259266;-24.91241455078125;0
1579710321.2259402;-28.647216796875;0
1579710321.2259548;-32.40777587890625;0
1579710321.2259688;-36.49554443359375;0
1579710321.225982;-41.1595458984375;0
1579710321.2259965;-46.49261474609375;0
1579710321.310119;-52.34375;0
1579710321.3140614;-58.286376953125;0
1579710321.3140728;-63.6624755859375;0
1579710321.3140833;-67.64923095703125;0
1579710321.3140898;-69.44915771484375;0
1579710321.3140967;-68.490478515625;0
1579710321.314103;-64.58148193359375;0
1579710321.3141084;-58.042724609375;0
1579710321.3141139;-49.575927734375;0
1579710321.3141193;-40.1673583984375;0
1579710321.3141265;-30.76568603515625;0
1579710321.5060098;-22.06890869140625;0
1579710321.519569;-14.3426513671875;0
1579710321.519591;-7.50567626953125;0
1579710321.520289;-1.29522705078125;0
1579710321.5203068;4.4891357421875;0
1579710321.5203207;9.91180419921875;0
1579710321.520334;14.9053955078125;0
1579710321.5203507;19.28765869140625;0
1579710321.5203648;22.96685791015625;0
1579710321.5203776;25.919677734375;0
1579710321.5203905;28.2271728515625;0
1579710321.6953754;30.0128173828125;0
1579710321.705299;31.41229248046875;0
1579710321.705316;32.53289794921875;0
1579710321.7053287;33.4615478515625;0
1579710321.70534;34.3558349609375;0
1579710321.7053509;35.29736328125;0
1579710321.7053628;36.39080810546875;0
1579710321.7053733;37.5811767578125;0
1579710321.705384;38.72869873046875;0
1579710321.7053955;39.56597900390625;0
1579710321.7054079;39.8428955078125;0
1579710321.8251808;39.46856689453125;0
1579710321.8306918;38.47467041015625;0
1579710321.8307066;37.12078857421875;0
1579710321.830716;35.64105224609375;0
1579710321.830724;34.2763671875;0
1579710321.8307323;33.03125;0
1579710321.8307402;31.794189453125;0
1579710321.8307478;30.36175537109375;0
1579710321.8307548;28.50604248046875;0
1579710321.830761;26.18743896484375;0
1579710321.8307672;23.4542236328125;0
1579710322.007227;20.47021484375;0
1579710322.0137813;17.382080078125;0
1579710322.013814;14.36627197265625;0
1579710322.013833;11.4898681640625;0
1579710322.013848;8.75482177734375;0
1579710322.013862;6.15313720703125;0
1579710322.0138764;3.57666015625;0
1579710322.0138903;0.97662353515625;0
1579710322.013904;-1.7532958984375;0
1579710322.0139172;-4.6412353515625;0
1579710322.0139308;-7.708251953125;0
1579710322.115117;0.24589712917804718;0
1579710322.1237445;0.2471778392791748;0
1579710322.1237655;0.24589712917804718;0
1579710322.1237907;0.24845856428146362;0
1579710322.1238053;0.24589712917804718;0
1579710322.1238174;0.24845856428146362;0
1579710322.160368;-10.85113525390625;0
1579710322.1668313;-13.93701171875;0
1579710322.1668549;-16.86212158203125;0
1579710322.1668684;-19.500244140625;0
1579710322.1673772;-21.89788818359375;0
1579710322.1673923;-24.06036376953125;0
1579710322.1674144;-26.1907958984375;0
1579710322.1674266;-28.46826171875;0
1579710322.167438;-31.08746337890625;0
1579710322.1674492;-34.19439697265625;0
1579710322.1674604;-37.819580078125;0
1579710322.2751703;31.510000228881836;0
1579710322.2860599;31.510000228881836;0
1579710322.2860725;31.510000228881836;0
1579710322.2860806;31.510000228881836;0
1579710322.2860873;31.530000686645508;0
1579710322.2860935;31.530000686645508;0
1579710322.2860994;31.530000686645508;0
1579710322.2861052;31.530000686645508;0
1579710322.3569274;-42.0301513671875;0
1579710322.3605464;-46.79071044921875;0
1579710322.3605616;-52.116943359375;0
1579710322.360572;-57.85675048828125;0
1579710322.3605814;-63.79248046875;0
1579710322.3605897;-69.37017822265625;0
1579710322.3605983;-73.80828857421875;0
1579710322.3606067;-76.313720703125;0
1579710322.3606145;-76.2154541015625;0
1579710322.3606226;-73.267578125;0
1579710322.360631;-67.62725830078125;0
1579710322.4974298;-59.91412353515625;0
1579710322.501085;-50.8736572265625;0
1579710322.5010996;-41.25286865234375;0
1579710322.5011084;-31.69842529296875;0
1579710322.5011153;-22.64324951171875;0
1579710322.5011222;-14.3779296875;0
1579710322.501129;-6.98773193359375;0
1579710322.5011358;-0.413330078125;0
1579710322.5011423;5.604736328125;0
1579710322.5011487;11.34521484375;0
1579710322.5011616;17.03350830078125;0
1579710322.6845217;22.67803955078125;0
1579710322.684538;28.071533203125;0
1579710322.6845522;32.94732666015625;0
1579710322.6845653;37.026123046875;0
1579710322.684578;40.28515625;0
1579710322.6845906;42.7635498046875;0
1579710322.6846046;44.57720947265625;0
1579710322.684618;45.81890869140625;0
1579710322.6846302;46.5440673828125;0
1579710322.6846433;46.867431640625;0
1579710322.6846573;46.955810546875;0
1579710322.8643954;47.06396484375;0
1579710322.8644245;47.381103515625;0
1579710322.8722038;47.99871826171875;0
1579710322.8725243;48.726806640625;0
1579710322.872542;49.24664306640625;0
1579710322.8725495;49.20037841796875;0
1579710322.8725562;48.33465576171875;0
1579710322.8725624;46.6339111328125;0
1579710322.8725688;44.25091552734375;0
1579710322.8725748;41.523193359375;0
1579710322.8725808;38.75762939453125;0
1579710323.0367444;36.17901611328125;0
1579710323.0498104;33.79736328125;0
1579710323.0498471;31.533203125;0
1579710323.049864;29.21826171875;0
1579710323.049883;26.72637939453125;0
1579710323.049896;24.1192626953125;0
1579710323.04991;21.55657958984375;0
1579710323.0499234;19.22344970703125;0
1579710323.049936;17.2205810546875;0
1579710323.0499597;15.54766845703125;0
1579710323.0499713;14.02471923828125;0
1579710323.274904;12.42681884765625;0
1579710323.2793505;10.53277587890625;0
1579710323.2793684;8.18414306640625;0
1579710323.2793918;5.37554931640625;0
1579710323.2794049;2.23565673828125;0
1579710323.2794273;-0.97784423828125;0
1579710323.2794392;-4.02099609375;0
1579710323.2794511;-6.624267578125;0
1579710323.2794626;-8.71099853515625;0
1579710323.2794747;-10.37249755859375;0
1579710323.279489;-11.877685546875;0
1579710323.3557844;-13.585205078125;0
1579710323.3673673;-15.7442626953125;0
1579710323.3673964;-18.41143798828125;0
1579710323.367413;-21.4637451171875;0
1579710323.3674295;-24.71124267578125;0
1579710323.3674445;-27.93524169921875;0
1579710323.3674598;-31.02362060546875;0
1579710323.3674748;-33.95819091796875;0
1579710323.367489;-36.76934814453125;0
1579710323.367503;-39.5184326171875;0
1579710323.3675172;-42.285400390625;0
1579710323.559707;-45.15960693359375;0
1579710323.5656538;-48.280517578125;0
1579710323.5656695;-51.71575927734375;0
1579710323.5656781;-55.39202880859375;0
1579710323.5656853;-58.96722412109375;0
1579710323.5656915;-61.75469970703125;0
1579710323.5656984;-62.9595947265625;0
1579710323.565704;-61.804443359375;0
1579710323.5657103;-57.8604736328125;0
1579710323.565717;-51.21624755859375;0
1579710323.5660305;-42.52716064453125;0
1579710323.61702;0.2471778392791748;0
1579710323.6223636;0.24845856428146362;0
1579710323.6223898;0.2420549839735031;0
1579710323.6224072;0.24973927438259125;0
1579710323.6224248;0.24461641907691956;0
1579710323.622442;0.24845856428146362;0
1579710323.695497;-32.7530517578125;0
1579710323.7027721;-22.93792724609375;0
1579710323.7027934;-13.89605712890625;0
1579710323.7028089;-5.99298095703125;0
1579710323.7028232;0.7452392578125;0
1579710323.7028365;6.529296875;0
1579710323.70285;11.6126708984375;0
1579710323.7028642;16.15301513671875;0
1579710323.702878;20.15032958984375;0
1579710323.7028923;23.64044189453125;0
1579710323.702907;26.634521484375;0
1579710323.8750389;29.205322265625;0
1579710323.8825428;31.4376220703125;0
1579710323.8825648;33.3310546875;0
1579710323.8825798;34.798095703125;0
1579710323.882592;35.717041015625;0
1579710323.8826115;36.03125;0
1579710323.8826232;35.744873046875;0
1579710323.8826387;35.03680419921875;0
1579710323.88265;34.104736328125;0
1579710323.8826609;33.13128662109375;0
1579710323.895276;32.213623046875;0
1579710324.0765805;31.36688232421875;0
1579710324.0820105;30.53387451171875;0
1579710324.0820374;29.61053466796875;0
1579710324.082056;28.536865234375;0
1579710324.0820744;27.29791259765625;0
1579710324.0820894;25.946044921875;0
1579710324.0821047;24.59234619140625;0
1579710324.0821228;23.357757568359375;0
1579710324.0821369;22.335784912109375;0
1579710324.08215;21.5198974609375;0
1579710324.082164;20.861083984375;0
1579710324.2161515;20.26336669921875;0
1579710324.2217493;19.618011474609375;0
1579710324.2217703;18.86224365234375;0
1579710324.2217846;17.960601806640625;0
1579710324.2217968;16.8326416015625;0
1579710324.2218084;15.35693359375;0
1579710324.22182;13.48345947265625;0
1579710324.221832;11.200347900390625;0
1579710324.221843;8.654327392578125;0
1579710324.221854;6.071685791015625;0
1579710324.2218647;3.65203857421875;0
1579710324.2582629;31.549999237060547;0
1579710324.2621899;31.549999237060547;0
1579710324.262212;31.549999237060547;0
1579710324.2622283;31.549999237060547;0
1579710324.2622426;31.549999237060547;0
1579710324.2622564;31.549999237060547;0
1579710324.2622702;31.549999237060547;0
1579710324.2622914;31.549999237060547;0
1579710324.4155064;1.525482177734375;0
1579710324.4220345;-0.336944580078125;0
1579710324.4220467;-2.11724853515625;0
1579710324.422055;-4.00927734375;0
1579710324.422064;-6.165740966796875;0
1579710324.422071;-8.73931884765625;0
1579710324.4220793;-11.762115478515625;0
1579710324.4220855;-15.2520751953125;0
1579710324.4220917;-19.0958251953125;0
1579710324.4220989;-23.116302490234375;0
1579710324.4221058;-27.04608154296875;0
1579710324.5572493;-30.625457763671875;0
1579710324.5646212;-33.68804931640625;0
1579710324.5646398;-36.1558837890625;0
1579710324.5646546;-38.212921142578125;0
1579710324.5646677;-40.19000244140625;0
1579710324.5646794;-42.53265380859375;0
1579710324.5646915;-45.633697509765625;0
1579710324.5647032;-49.668243408203125;0
1579710324.5647144;-54.40313720703125;0
1579710324.5647254;-59.146026611328125;0
1579710324.5647376;-62.886138916015625;0
1579710324.7437696;-64.48922729492188;0
1579710324.743789;-63.128265380859375;0
1579710324.7438045;-58.528045654296875;0
1579710324.7438185;-51.1241455078125;0
1579710324.743833;-41.873443603515625;0
1579710324.743847;-31.972381591796875;0
1579710324.7438629;-22.45513916015625;0
1579710324.7438767;-13.990234375;0
1579710324.7438898;-6.78619384765625;0
1579710324.743903;-0.68328857421875;0
1579710324.7551239;4.6258544921875;0
1579710324.9318984;9.47320556640625;0
1579710324.931912;14.020263671875;0
1579710324.9319263;18.21221923828125;0
1579710324.9319391;21.845123291015625;0
1579710324.9319494;24.6270751953125;0
1579710324.9319608;26.372100830078125;0
1579710324.9319732;27.098114013671875;0
1579710324.9319851;27.135772705078125;0
1579710324.9319966;26.979095458984375;0
1579710324.9320085;27.166839599609375;0
1579710324.9326558;27.9781494140625;0
1579710325.1177144;29.33648681640625;0
1579710325.126092;30.894866943359375;0
1579710325.1261048;32.183837890625;0
1579710325.1261132;32.920684814453125;0
1579710325.1261208;33.021026611328125;0
1579710325.126127;32.685028076171875;0
1579710325.1261337;32.147979736328125;0
1579710325.1261404;31.54339599609375;0
1579710325.126147;30.804443359375;0
1579710325.1261532;29.7071533203125;0
1579710325.1261597;28.032562255859375;0
1579710325.1262043;0.2471778392791748;0
1579710325.126211;0.24845856428146362;0
1579710325.126217;0.2471778392791748;0
1579710325.126223;0.24973927438259125;0
1579710325.126229;0.2471778392791748;0
1579710325.1262355;0.25101998448371887;0
1579710325.3351486;25.740997314453125;0
1579710325.340895;23.05889892578125;0
1579710325.3409061;20.351165771484375;0
1579710325.340914;17.9830322265625;0
1579710325.340921;16.144744873046875;0
1579710325.3409276;14.7391357421875;0
1579710325.340934;13.500396728515625;0
1579710325.3409402;12.074676513671875;0
1579710325.3409467;10.253570556640625;0
1579710325.340953;8.046356201171875;0
1579710325.340959;5.678802490234375;0
1579710325.4153886;3.470794677734375;0
1579710325.4217951;1.600616455078125;0
1579710325.42181;0.125244140625;0
1579710325.4218223;-1.093292236328125;0
1579710325.4218333;-2.253143310546875;0
1579710325.421844;-3.629730224609375;0
1579710325.4218545;-5.383575439453125;0
1579710325.4218652;-7.636810302734375;0
1579710325.4218764;-10.414886474609375;0
1579710325.4218867;-13.63995361328125;0
1579710325.4218967;-17.239013671875;0
1579710325.6348903;-20.989044189453125;0
1579710325.645469;-24.751495361328125;0
1579710325.6454804;-28.31982421875;0
1579710325.645489;-31.66290283203125;0
1579710325.645496;-34.831939697265625;0
1579710325.6455026;-38.066925048828125;0
1579710325.6455119;-41.66204833984375;0
1579710325.6455247;-45.914581298828125;0
1579710325.6455317;-51.011627197265625;0
1579710325.6455379;-56.818084716796875;0
1579710325.6455443;-62.848968505859375;0
1579710325.8176866;-68.2357177734375;0
1579710325.821521;-71.78448486328125;0
1579710325.8215535;-72.46826171875;0
1579710325.821569;-69.62808227539062;0
1579710325.8215814;-63.330535888671875;0
1579710325.8215923;-54.36083984375;0
1579710325.8216038;-44.0057373046875;0
1579710325.8216145;-33.5919189453125;0
1579710325.8216262;-24.13250732421875;0
1579710325.8216367;-16.080841064453125;0
1579710325.8216457;-9.23773193359375;0
1579710326.0549514;-3.174163818359375;0
1579710326.0618489;2.605010986328125;0
1579710326.0618732;8.323944091796875;0
1579710326.0618901;13.969482421875;0
1579710326.0619082;1.1094257831573486;0
1579710326.0619226;19.2498779296875;0
1579710326.0619383;23.87139892578125;0
1579710326.0619526;27.560821533203125;0
1579710326.0619662;30.155914306640625;0
1579710326.06198;31.67181396484375;0
1579710326.0619931;32.173797607421875;0
1579710326.0620077;31.891326904296875;0
1579710326.1362734;31.0654296875;0
1579710326.1437662;30.091461181640625;0
1579710326.143786;29.303466796875;0
1579710326.1438022;29.095001220703125;0
1579710326.143817;29.69989013671875;0
1579710326.1438303;31.12567138671875;0
1579710326.1438432;33.16082763671875;0
1579710326.1438627;35.360931396484375;0
1579710326.143876;37.262237548828125;0
1579710326.1438882;38.404144287109375;0
1579710326.1439004;38.534271240234375;0
1579710326.2552264;31.510000228881836;0
1579710326.2656155;31.510000228881836;0
1579710326.2656283;31.510000228881836;0
1579710326.2656367;31.510000228881836;0
1579710326.2656438;31.530000686645508;0
1579710326.2656515;31.530000686645508;0
1579710326.265658;31.530000686645508;0
1579710326.2656717;31.530000686645508;0
1579710326.2859054;37.677978515625;0
1579710326.2933557;36.0426025390625;0
1579710326.293378;34.0430908203125;0
1579710326.2933931;32.1160888671875;0
1579710326.2934077;30.5367431640625;0
1579710326.2934277;29.359268188476562;0
1579710326.2934422;28.436660766601562;0
1579710326.2934573;27.404144287109375;0
1579710326.2934728;25.92547607421875;0
1579710326.2940862;23.795166015625;0
1579710326.2941043;21.060226440429688;0
1579710326.4783652;18.0845947265625;0
1579710326.4783933;15.247970581054688;0
1579710326.478409;12.817123413085938;0
1579710326.4784238;10.780014038085938;0
1579710326.478439;8.930755615234375;0
1579710326.478455;6.9552154541015625;0
1579710326.4784691;4.6633148193359375;0
1579710326.4784834;2.077423095703125;0
1579710326.4784977;-0.6591796875;0
1579710326.478512;-3.34619140625;0
1579710326.4785268;-5.9075164794921875;0
1579710326.664785;0.25101998448371887;0
1579710326.6715696;0.24845856428146362;0
1579710326.6715806;0.2535814046859741;0
1579710326.6715882;0.2523007094860077;0
1579710326.671595;0.25486212968826294;0
1579710326.671601;0.25101998448371887;0
1579710326.6716087;-8.392410278320312;0
1579710326.6716156;-10.981964111328125;0
1579710326.6716518;-13.82012939453125;0
1579710326.6716654;-17.021835327148438;0
1579710326.6716757;-20.600860595703125;0
1579710326.671682;-24.547653198242188;0
1579710326.6716876;-28.8453369140625;0
1579710326.6716938;-33.44056701660156;0
1579710326.6716995;-38.205322265625;0
1579710326.6717052;-42.94134521484375;0
1579710326.6717114;-47.43583679199219;0
1579710326.805069;-51.563232421875;0
1579710326.8147147;-55.39857482910156;0
1579710326.8147438;-59.131500244140625;0
1579710326.8147593;-63.083709716796875;0
1579710326.8147721;-67.48052978515625;0
1579710326.8147845;-72.28486633300781;0
1579710326.8147976;-77.11131286621094;0
1579710326.814809;-81.25166320800781;0
1579710326.8148208;-83.79902648925781;0
1579710326.8148327;-83.97393798828125;0
1579710326.8148441;-81.25335693359375;0
1579710327.0714061;-75.59638977050781;0
1579710327.0714254;-67.54386901855469;0
1579710327.071441;-58.06428527832031;0
1579710327.0714552;-48.322723388671875;0
1579710327.0714698;-39.34986877441406;0
1579710327.0714839;-31.795761108398438;0
1579710327.0714982;-25.751815795898438;0
1579710327.0715132;-20.833663940429688;0
1579710327.0715263;-16.386077880859375;0
1579710327.0715406;-11.79083251953125;0
1579710327.0721998;-6.67333984375;0
1579710327.146907;-1.0547332763671875;0
1579710327.15245;4.694122314453125;0
1579710327.15247;9.98638916015625;0
1579710327.152484;1.078174352645874;0
1579710327.1524992;14.211639404296875;0
1579710327.152516;16.949600219726562;0
1579710327.1525285;18.072723388671875;0
1579710327.152547;17.629150390625;0
1579710327.1525593;15.953033447265625;0
1579710327.1525707;13.571609497070312;0
1579710327.1525824;11.218429565429688;0
1579710327.1525939;9.823822021484375;0
1579710327.364885;10.433761596679688;0
1579710327.3727398;13.897064208984375;0
1579710327.3727515;20.60552978515625;0
1579710327.3727598;30.207427978515625;0
1579710327.372767;41.64939880371094;0
1579710327.3727734;53.51582336425781;0
1579710327.3727798;64.48532104492188;0
1579710327.3727858;73.83180236816406;0
1579710327.3727992;81.53500366210938;0
1579710327.3728054;87.99324035644531;0
1579710327.3728116;93.56587219238281;0
1579710327.486095;98.091064453125;0
1579710327.4918118;100.86196899414062;0
1579710327.4918232;100.84283447265625;0
1579710327.491831;97.35955810546875;0
1579710327.4918382;90.52830505371094;0
1579710327.4918444;81.460693359375;0
1579710327.491851;71.92596435546875;0
1579710327.491857;63.73643493652344;0
1579710327.491863;58.20179748535156;0
1579710327.491869;55.776763916015625;0
1579710327.4918752;56.165252685546875;0
1579710327.736116;58.446014404296875;0
1579710327.7422786;61.5350341796875;0
1579710327.7423065;64.25018310546875;0
1579710327.7423236;65.50582885742188;0
1579710327.7423406;64.36428833007812;0
1579710327.7423573;60.147430419921875;0
1579710327.7423716;52.64923095703125;0
1579710327.7423859;42.18281555175781;0
1579710327.7424002;29.506393432617188;0
1579710327.7424142;15.526123046875;0
1579710327.742428;1.127532958984375;0
1579710327.8575754;-13.104736328125;0
1579710327.86309;-26.798965454101562;0
1579710327.8631008;-39.70271301269531;0
1579710327.8631082;-51.48347473144531;0
1579710327.863115;-61.68901062011719;0
1579710327.8634155;-69.82798767089844;0
1579710327.8634286;-75.55830383300781;0
1579710327.863435;-78.85818481445312;0
1579710327.863441;-80.20588684082031;0
1579710327.8634465;-80.51882934570312;0
1579710327.8634527;-80.968994140625;0
1579710328.0170841;-82.68467712402344;0
1579710328.023801;-86.36506652832031;0
1579710328.0238178;-92.02639770507812;0
1579710328.023837;-98.84579467773438;0
1579710328.02385;-105.33892822265625;0
1579710328.0238605;-109.75971984863281;0
1579710328.0238729;-110.65963745117188;0
1579710328.0238833;-107.20960998535156;0
1579710328.023895;-99.25108337402344;0
1579710328.0239053;-87.09620666503906;0
1579710328.0239236;-71.44709777832031;0
1579710328.123147;0.25486212968826294;0
1579710328.1231632;0.25101998448371887;0
1579710328.1231751;0.25486212968826294;0
1579710328.1231863;0.25101998448371887;0
1579710328.123197;0.25486212968826294;0
1579710328.1232088;0.2523007094860077;0
1579710328.1955173;-53.227447509765625;0
1579710328.2017534;-33.64776611328125;0
1579710328.2017753;-14.0924072265625;0
1579710328.2017922;3.9760589599609375;0
1579710328.2018054;19.395156860351562;0
1579710328.2018175;31.57763671875;0
1579710328.20183;1.1875543594360352;0
1579710328.2018418;40.667030334472656;0
1579710328.2018535;47.36250305175781;0
1579710328.201865;52.457176208496094;0
1579710328.2018754;56.50316619873047;0
1579710328.2018864;59.590309143066406;0
1579710328.266749;31.530000686645508;0
1579710328.273725;31.530000686645508;0
1579710328.2737453;31.530000686645508;0
1579710328.2737608;31.530000686645508;0
1579710328.2737741;31.530000686645508;0
1579710328.2737868;31.530000686645508;0
1579710328.27381;31.530000686645508;0
1579710328.273823;31.530000686645508;0
1579710328.3860912;61.51570129394531;0
1579710328.391803;61.90663146972656;0
1579710328.391818;60.586524963378906;0
1579710328.3918264;57.608863830566406;0
1579710328.391835;53.3155517578125;0
1579710328.3918417;48.2574462890625;0
1579710328.3918476;43.1104736328125;0
1579710328.3918548;38.55682373046875;0
1579710328.3923416;35.079444885253906;0
1579710328.392354;32.883827209472656;0
1579710328.3923652;31.806533813476562;0
1579710328.5258517;31.493743896484375;0
1579710328.536595;31.49059295654297;0
1579710328.536607;31.50897979736328;0
1579710328.5366142;31.42761993408203;0
1579710328.5366206;31.21263885498047;0
1579710328.5366266;30.831443786621094;0
1579710328.536637;30.068153381347656;0
1579710328.536649;28.70050811767578;0
1579710328.536656;26.596923828125;0
1579710328.5366619;23.91999053955078;0
1579710328.5366678;21.085372924804688;0
1579710328.7269301;18.64202880859375;0
1579710328.7353232;16.97802734375;0
1579710328.7353716;16.09278106689453;0
1579710328.7354026;15.659103393554688;0
1579710328.7354183;15.124313354492188;0
1579710328.735435;13.964462280273438;0
1579710328.7354546;11.956737518310547;0
1579710328.735472;9.14760971069336;0
1579710328.7354832;5.774814605712891;0
1579710328.7354896;2.118915557861328;0
1579710328.7354965;-1.5766181945800781;0
1579710328.8649666;-5.182121276855469;0
1579710328.8708396;-8.572341918945312;0
1579710328.8708534;-11.591239929199219;0
1579710328.8708615;-14.14529037475586;0
1579710328.870869;-16.174835205078125;0
1579710328.870876;-17.751466751098633;0
1579710328.870883;-19.139820098876953;0
1579710328.8708894;-20.59532928466797;0
1579710328.8708959;-22.28394317626953;0
1579710328.870903;-24.286457061767578;0
1579710328.8709145;-26.54977035522461;0
1579710329.0535822;-28.98514747619629;0
1579710329.053595;-31.497577667236328;0
1579710329.0536075;-33.996734619140625;0
1579710329.0536187;-36.47871398925781;0
1579710329.0601964;-39.05120086669922;0
1579710329.060209;-41.95228576660156;0
1579710329.0602167;-45.422813415527344;0
1579710329.0602236;-49.60652542114258;0
1579710329.0602295;-54.29298782348633;0
1579710329.060236;-58.894256591796875;0
1579710329.0602427;-62.544002532958984;0
1579710329.2258346;-64.25579833984375;0
1579710329.23918;-63.3391227722168;0
1579710329.2392097;-59.58553695678711;0
1579710329.239227;-53.36151885986328;0
1579710329.2398095;-45.4590950012207;0
1579710329.2398257;-36.871070861816406;0
1579710329.2398376;-28.429410934448242;0
1579710329.2398503;-20.69847869873047;0
1579710329.239862;-13.976156234741211;0
1579710329.2398736;-8.176216125488281;0
1579710329.2398858;-3.060586929321289;0
1579710329.4548593;1.5938758850097656;0
1579710329.4602413;5.965032577514648;0
1579710329.460255;10.044025421142578;0
1579710329.4602642;1.078174352645874;0
1579710329.4602723;13.709665298461914;0
1579710329.4602792;16.909957885742188;0
1579710329.4602861;19.591663360595703;0
1579710329.460293;21.738292694091797;0
1579710329.4603;23.400365829467773;0
1579710329.4603064;24.605789184570312;0
1579710329.4603136;25.392818450927734;0
1579710329.4603198;25.88581085205078;0
1579710329.6162877;26.248291015625;0
1579710329.6232038;26.729206085205078;0
1579710329.623216;27.52518081665039;0
1579710329.623224;28.655132293701172;0
1579710329.6232314;29.913875579833984;0
1579710329.6232383;30.944503784179688;0
1579710329.6232448;31.372211456298828;0
1579710329.6232524;30.97821044921875;0
1579710329.6232588;29.84469985961914;0
1579710329.623265;28.17403793334961;0
1579710329.6232712;26.328956604003906;0
1579710329.6233215;0.2535814046859741;0
1579710329.6233277;0.2523007094860077;0
1579710329.6233337;0.25486212968826294;0
1579710329.62334;0.2523007094860077;0
1579710329.623346;0.25614285469055176;0
1579710329.623352;0.25101998448371887;0
1579710329.7351563;24.55107879638672;0
1579710329.7418423;22.92483901977539;0
1579710329.7418692;21.407516479492188;0
1579710329.7418892;19.937801361083984;0
1579710329.7419136;18.458202362060547;0
1579710329.7419305;16.96158218383789;0
1579710329.741945;15.519634246826172;0
1579710329.7419593;14.055168151855469;0
1579710329.7419734;12.409996032714844;0
1579710329.7419875;10.403491973876953;0
1579710329.7420018;7.901359558105469;0
1579710329.9166763;4.950584411621094;0
1579710329.9206772;1.7621650695800781;0
1579710329.9206915;-1.4086456298828125;0
1579710329.9206998;-4.4202880859375;0
1579710329.9213;-7.3255615234375;0
1579710329.9213183;-10.412895202636719;0
1579710329.921333;-14.020492553710938;0
1579710329.9213448;-18.258934020996094;0
1579710329.9213564;-22.961807250976562;0
1579710329.9213684;-27.683456420898438;0
1579710329.9213793;-31.902923583984375;0
1579710330.0653362;-35.3236083984375;0
1579710330.0750182;-38.00572204589844;0
1579710330.0750296;-40.37690734863281;0
1579710330.0750372;-43.064292907714844;0
1579710330.0750437;-46.580467224121094;0
1579710330.0750499;-51.12189483642578;0
1579710330.0750566;-56.52263641357422;0
1579710330.0750668;-62.2279052734375;0
1579710330.0750775;-67.56340789794922;0
1579710330.075088;-71.83011627197266;0
1579710330.0750992;-74.46159362792969;0
1579710330.2656736;-75.0682601928711;0
1579710330.2715487;-73.53857421875;0
1579710330.2715693;-70.01225280761719;0
1579710330.2715833;-64.81231689453125;0
1579710330.2715952;-58.31463623046875;0
1579710330.2716067;-50.72834014892578;0
1579710330.2716532;-42.038909912109375;0
1579710330.2716677;-32.084930419921875;0
1579710330.2716787;-20.81298828125;0
1579710330.2716906;-8.465171813964844;0
1579710330.271702;4.324493408203125;0
1579710330.2717135;31.530000686645508;0
1579710330.2717245;31.530000686645508;0
1579710330.2717357;31.530000686645508;0
1579710330.2717464;31.530000686645508;0
1579710330.271757;31.549999237060547;0
1579710330.2717679;31.549999237060547;0
1579710330.2717788;31.549999237060547;0
1579710330.27179;31.549999237060547;0
1579710330.4163673;16.644668579101562;0
1579710330.4286246;1.1563029289245605;0
1579710330.4286442;27.60369110107422;0
1579710330.428659;36.565582275390625;0
1579710330.4286718;43.309303283691406;0
1579710330.4288726;48.03208923339844;0
1579710330.4289012;51.15058898925781;0
1579710330.428925;53.05650329589844;0
1579710330.428945;54.098731994628906;0
1579710330.4289649;54.523704528808594;0
1579710330.4289856;54.516143798828125;0
1579710330.429003;54.227088928222656;0
1579710330.6054533;53.7301025390625;0
1579710330.610277;53.12590026855469;0
1579710330.6107886;52.42490005493164;0
1579710330.6108224;51.63039779663086;0
1579710330.6108313;50.7254638671875;0
1579710330.6108394;49.641029357910156;0
1579710330.6108468;48.31786346435547;0
1579710330.6108541;46.65259552001953;0
1579710330.610861;44.57543182373047;0
1579710330.6108685;42.01347351074219;0
1579710330.6108754;38.99943542480469;0
1579710330.7538621;35.59210968017578;0
1579710330.7608182;31.884300231933594;0
1579710330.7608411;28.05097198486328;0
1579710330.7608657;24.260086059570312;0
1579710330.760879;20.707237243652344;0
1579710330.760892;17.520050048828125;0
1579710330.7609053;14.842201232910156;0
1579710330.7609308;12.715370178222656;0
1579710330.7609544;11.110847473144531;0
1579710330.7609677;9.919570922851562;0
1579710330.7609797;8.967933654785156;0
1579710331.4094107;8.059738159179688;0
1579710331.4094188;7.03021240234375;0
1579710331.4094255;5.808967590332031;0
1579710331.4094315;4.333381652832031;0
1579710331.4094381;2.6876602172851562;0
1579710331.4094443;0.894439697265625;0
1579710331.4094515;-0.9759140014648438;0
1579710331.4094577;-2.9026260375976562;0
1579710331.4094641;-4.897514343261719;0
1579710331.4094703;-6.941162109375;0
1579710331.409476;-9.047248840332031;0
1579710331.4095154;-11.202987670898438;0
1579710331.4095213;-13.447608947753906;0
1579710331.4095273;-15.834205627441406;0
1579710331.4095337;-18.443008422851562;0
1579710331.40954;-21.255722045898438;0
1579710331.4095461;-24.170578002929688;0
1579710331.4095519;-27.063430786132812;0
1579710331.4095583;-29.76995849609375;0
1579710331.4095643;-32.380393981933594;0
1579710331.410076;-35.127685546875;0
1579710331.4100854;-38.40846252441406;0
1579710331.4100928;0.25486212968826294;0
1579710331.4100993;0.2523007094860077;0
1579710331.4101052;0.25486212968826294;0
1579710331.4101114;0.2523007094860077;0
1579710331.4101174;0.25614285469055176;0
1579710331.4101238;0.25486212968826294;0
1579710331.41013;-42.578712463378906;0
1579710331.4101357;-47.732666015625;0
1579710331.4101417;-53.579734802246094;0
1579710331.4104314;-59.39141082763672;0
1579710331.4104395;-64.24046325683594;0
1579710331.4104455;-67.1498031616211;0
1579710331.4104517;-67.4878921508789;0
1579710331.4104576;-65.10523223876953;0
1579710331.4104638;-60.38446807861328;0
1579710331.4104695;-54.08879852294922;0
1579710331.4104753;-47.06098937988281;0
1579710331.4648783;-40.072105407714844;0
1579710331.471452;-33.56610870361328;0
1579710331.4714835;-27.746566772460938;0
1579710331.4715042;-22.497352600097656;0
1579710331.471523;-17.62664031982422;0
1579710331.4715405;-12.879814147949219;0
1579710331.4715676;-7.9898223876953125;0
1579710331.4715843;-2.8156204223632812;0
1579710331.4715993;2.6994705200195312;0
1579710331.4716156;8.313621520996094;0
1579710331.4716675;1.0000457763671875;0
1579710331.4716928;13.710067749023438;0
1579710331.6253088;18.431640625;0
1579710331.631262;22.21221923828125;0
1579710331.631285;24.990951538085938;0
1579710331.631299;26.91838836669922;0
1579710331.631318;28.27777862548828;0
1579710331.6313372;29.242050170898438;0
1579710331.631358;29.919944763183594;0
1579710331.6313753;30.286643981933594;0
1579710331.6313944;30.412826538085938;0
1579710331.6314118;30.356529235839844;0
1579710331.6314301;30.250930786132812;0
1579710331.80538;30.17591094970703;0
1579710331.8104208;30.05011749267578;0
1579710331.8104517;29.76270294189453;0
1579710331.8104734;29.14495086669922;0
1579710331.8104877;28.20153045654297;0
1579710331.8105075;26.981040954589844;0
1579710331.8105195;25.68730926513672;0
1579710331.810531;24.43830108642578;0
1579710331.8105419;23.29552459716797;0
1579710331.8105533;22.247848510742188;0
1579710331.8105648;21.245521545410156;0
1579710332.007888;20.317115783691406;0
1579710332.0179074;19.440155029296875;0
1579710332.0179257;18.62964630126953;0
1579710332.0179396;17.79376220703125;0
1579710332.0179513;16.852012634277344;0
1579710332.0179617;15.757843017578125;0
1579710332.017973;14.446517944335938;0
1579710332.017985;12.99725341796875;0
1579710332.0179968;11.423851013183594;0
1579710332.0184715;9.766258239746094;0
1579710332.0184891;7.983818054199219;0
1579710332.1260111;6.008644104003906;0
1579710332.132334;3.7303543090820312;0
1579710332.1323502;1.1398468017578125;0
1579710332.1323621;-1.7429428100585938;0
1579710332.132373;-4.843231201171875;0
1579710332.1323836;-8.057830810546875;0
1579710332.1323943;-11.360305786132812;0
1579710332.1324048;-14.707611083984375;0
1579710332.132414;-18.091468811035156;0
1579710332.1324239;-21.477027893066406;0
1579710332.1458273;-24.86650848388672;0
1579710332.2453043;31.549999237060547;0
1579710332.2506335;31.549999237060547;0
1579710332.2506506;31.549999237060547;0
1579710332.2506628;31.549999237060547;0
1579710332.250675;31.530000686645508;0
1579710332.2506864;31.530000686645508;0
1579710332.2506971;31.530000686645508;0
1579710332.2507095;31.530000686645508;0
1579710332.3270135;-28.22382354736328;0
1579710332.335344;-31.574440002441406;0
1579710332.3353617;-35.02644348144531;0
1579710332.335375;-38.653076171875;0
1579710332.3353875;-42.49272918701172;0
1579710332.335402;-46.30762481689453;0
1579710332.3354144;-49.657493591308594;0
1579710332.3354254;-51.88999938964844;0
1579710332.3354368;-52.370155334472656;0
1579710332.3354483;-50.70768737792969;0
1579710332.335459;-46.829933166503906;0
1579710332.4653945;-41.122947692871094;0
1579710332.4727042;-34.21283721923828;0
1579710332.4727266;-26.91149139404297;0
1579710332.4727433;-19.89482879638672;0
1579710332.4727588;-13.6124267578125;0
1579710332.472775;-8.240058898925781;0
1579710332.4727895;-3.6454925537109375;0
1579710332.4728136;0.4478759765625;0
1579710332.4728274;4.30169677734375;0
1579710332.4728413;7.965095520019531;0
1579710332.472855;1.1719286441802979;0
1579710332.4728692;11.367057800292969;0
1579710332.6249468;0.25486212968826294;0
1579710332.6349137;0.2574235498905182;0
1579710332.6349378;0.25486212968826294;0
1579710332.6349537;0.25486212968826294;0
1579710332.6349673;0.25101998448371887;0
1579710332.6349792;0.25486212968826294;0
1579710332.6674454;14.2457275390625;0
1579710332.6738958;16.43195343017578;0
1579710332.673929;17.87804412841797;0
1579710332.6739469;18.723052978515625;0
1579710332.6739626;19.28142547607422;0
1579710332.6739783;19.84662628173828;0
1579710332.673995;20.596694946289062;0
1579710332.6740096;21.56475067138672;0
1579710332.6740248;22.812850952148438;0
1579710332.6740396;24.29163360595703;0
1579710332.6740644;26.00365447998047;0
1579710332.8825433;27.892791748046875;0
1579710332.8825636;29.800643920898438;0
1579710332.8825743;31.527069091796875;0
1579710332.8825831;32.79093933105469;0
1579710332.8825908;33.37079620361328;0
1579710332.8825977;33.098228454589844;0
1579710332.8826046;32.00212097167969;0
1579710332.8826125;30.257606506347656;0
1579710332.8826191;28.139076232910156;0
1579710332.8826363;25.976959228515625;0
1579710332.882648;24.059104919433594;0
1579710332.995262;22.56702423095703;0
1579710333.0048351;21.479896545410156;0
1579710333.0048492;20.655776977539062;0
1579710333.004857;19.842491149902344;0
1579710333.0048637;18.760948181152344;0
1579710333.004871;17.200729370117188;0
1579710333.004878;15.087196350097656;0
1579710333.0048847;12.524574279785156;0
1579710333.0048916;9.723709106445312;0
1579710333.0048985;6.982452392578125;0
1579710333.0049047;4.479278564453125;0
1579710333.1827567;2.3192672729492188;0
1579710333.1827738;0.42119598388671875;0
1579710333.1827874;-1.4654312133789062;0
1579710333.182799;-3.6414337158203125;0
1579710333.182811;-6.308769226074219;0
1579710333.1828232;-9.519935607910156;0
1579710333.1828346;-13.156623840332031;0
1579710333.182846;-16.999839782714844;0
1579710333.1828573;-20.814376831054688;0
1579710333.1828682;-24.446731567382812;0
1579710333.1828878;-27.785934448242188;0
1579710333.360356;-30.873497009277344;0
1579710333.3658419;-33.82379150390625;0
1579710333.3658586;-36.85154724121094;0
1579710333.3658712;-40.169036865234375;0
1579710333.3659105;-43.964569091796875;0
1579710333.3659244;-48.21337890625;0
1579710333.3659372;-52.55133056640625;0
1579710333.365949;-56.32708740234375;0
1579710334.143199;0.2574235498905182;0
1579710334.143209;0.25101998448371887;0
1579710334.1432161;0.2574235498905182;0
1579710334.2280505;-9.209320068359375;0
1579710334.2386541;-12.234283447265625;0
1579710334.2386684;-15.078376770019531;0
1579710334.238677;-17.59992218017578;0
1579710334.2386842;-19.845245361328125;0
1579710334.238691;-21.96234893798828;0
1579710334.2386987;-24.28033447265625;0
1579710334.2387056;-27.149383544921875;0
1579710334.2387118;-30.792236328125;0
1579710334.2387183;-35.28681945800781;0
1579710334.2387247;-40.45771789550781;0
1579710334.265741;31.530000686645508;0
1579710334.2736962;31.530000686645508;0
1579710334.273709;31.530000686645508;0
1579710334.2737174;31.530000686645508;0
1579710334.2737246;31.56999969482422;0
1579710334.2737312;31.56999969482422;0
1579710334.2737377;31.56999969482422;0
1579710334.2737443;31.56999969482422;0
1579710334.3882375;-45.93762969970703;0
1579710334.3947022;-51.15178680419922;0
1579710334.3947253;-55.41845703125;0
1579710334.3947413;-58.0054931640625;0
1579710334.3947577;-58.28746032714844;0
1579710334.394773;-56.02384948730469;0
1579710334.394787;-51.356224060058594;0
1579710334.394801;-44.89738464355469;0
1579710334.3948255;-37.50978088378906;0
1579710334.3948398;-30.127891540527344;0
1579710334.3948543;-23.409996032714844;0
1579710334.5254064;-17.610008239746094;0
1579710334.5315073;-12.583160400390625;0
1579710334.5315301;-7.926460266113281;0
1579710334.531553;-3.3550872802734375;0
1579710334.5315683;1.2179641723632812;0
1579710334.531579;5.4988555908203125;0
1579710334.531589;9.074165344238281;0
1579710334.531599;1.0469229221343994;0
1579710334.536923;11.594284057617188;0
1579710334.5369475;13.051559448242188;0
1579710334.5369618;13.8262939453125;0
1579710334.536978;14.461982727050781;0
1579710334.7251318;15.502208709716797;0
1579710334.7324622;17.290111541748047;0
1579710334.732482;19.957996368408203;0
1579710334.732495;23.54056167602539;0
1579710334.7325063;28.11130142211914;0
1579710334.7325175;33.696495056152344;0
1579710334.7328646;40.10433578491211;0
1579710334.7328725;46.78633117675781;0
1579710334.732879;52.79550552368164;0
1579710334.7328854;57.13580322265625;0
1579710334.7328913;59.05492401123047;0
1579710334.8676906;58.347076416015625;0
1579710334.8743103;55.48004913330078;0
1579710334.8743348;51.3529167175293;0
1579710334.8743527;46.95412063598633;0
1579710334.8743734;43.01708984375;0
1579710334.8743858;39.89668273925781;0
1579710334.874393;37.462371826171875;0
1579710334.8744006;35.40519332885742;0
1579710334.874412;33.363258361816406;0
1579710334.8744264;31.054916381835938;0
1579710334.87444;28.46066665649414;0
1579710335.0538566;25.73470687866211;0
1579710335.0538747;23.09276580810547;0
1579710335.0594683;20.613140106201172;0
1579710335.059478;18.272445678710938;0
1579710335.059485;15.856029510498047;0
1579710335.0594914;13.253898620605469;0
1579710335.0594978;10.478645324707031;0
1579710335.0595038;7.71697998046875;0
1579710335.0595102;5.250705718994141;0
1579710335.0595164;3.217700958251953;0
1579710335.0595233;1.4763870239257812;0
1579710335.2852652;-0.31739044189453125;0
1579710335.2923186;-2.563068389892578;0
1579710335.2923415;-5.576751708984375;0
1579710335.2923582;-9.308921813964844;0
1579710335.2923741;-13.463993072509766;0
1579710335.2923884;-17.658546447753906;0
1579710335.292403;-21.561424255371094;0
1579710335.2924175;-25.068260192871094;0
1579710335.2924323;-28.286399841308594;0
1579710335.2924476;-31.396827697753906;0
1579710335.2924612;-34.603271484375;0
1579710335.4051561;-38.065040588378906;0
1579710335.4230978;-41.807373046875;0
1579710335.4231293;-45.778472900390625;0
1579710335.423149;-49.86005401611328;0
1579710335.423166;-53.79277038574219;0
1579710335.4231822;-57.217437744140625;0
1579710335.4231973;-59.63304901123047;0
1579710335.423212;-60.453697204589844;0
1579710335.423227;-59.16786193847656;0
1579710335.4232423;-55.59972381591797;0
1579710335.4232562;-49.898956298828125;0
1579710335.6567333;-42.58280944824219;0
1579710335.6626503;-34.391029357910156;0
1579710335.6629977;-26.02996063232422;0
1579710335.663008;-18.04438018798828;0
1579710335.6630154;-10.671318054199219;0
1579710335.6630223;-3.9173507690429688;0
1579710335.6630285;2.3894195556640625;0
1579710335.6630352;8.371528625488281;0
1579710335.6630423;14.030166625976562;0
1579710335.6630547;0.9687943458557129;0
1579710335.6630657;19.205703735351562;0
1579710335.6630766;23.61493682861328;0
1579710335.6631553;0.2535814046859741;0
1579710335.6631675;0.2523007094860077;0
1579710335.6631787;0.2535814046859741;0
1579710335.6631896;0.2535814046859741;0
1579710335.6632;0.24973927438259125;0
1579710335.663211;0.25486212968826294;0
1579710335.7378995;27.068313598632812;0
1579710335.7430189;29.423019409179688;0
1579710335.7430387;30.729965209960938;0
1579710335.743054;31.146743774414062;0
1579710335.743068;30.918304443359375;0
1579710335.7430809;30.30634307861328;0
1579710335.7430937;29.618759155273438;0
1579710335.7431061;29.156005859375;0
1579710335.743118;29.130874633789062;0
1579710335.7431307;29.720863342285156;0
1579710335.7431433;30.87409210205078;0
1579710335.9255514;32.389984130859375;0
1579710335.935496;33.94575500488281;0
1579710335.935509;35.19221496582031;0
1579710335.9355178;35.81793212890625;0
1579710335.935525;35.62640380859375;0
1579710335.9355326;34.61864471435547;0
1579710335.9355395;32.84015655517578;0
1579710335.935546;30.444259643554688;0
1579710335.9355524;27.656166076660156;0
1579710335.9355612;24.74970245361328;0
1579710335.9355717;22.04192352294922;0
1579710336.0653334;19.810997009277344;0
1579710336.0728092;18.159133911132812;0
1579710336.0728273;16.99126434326172;0
1579710336.072836;16.042259216308594;0
1579710336.072843;14.929763793945312;0
1579710336.0728495;13.357070922851562;0
1579710336.0728555;11.241828918457031;0
1579710336.0728624;8.657630920410156;0
1579710336.0728688;5.884101867675781;0
1579710336.072876;3.184356689453125;0
1579710336.0728822;0.752349853515625;0
1579710336.2652793;-1.3670883178710938;0
1579710336.2743545;-3.1669235229492188;0
1579710336.2748399;-4.692596435546875;0
1579710336.2748568;-6.018928527832031;0
1579710336.27487;-7.210113525390625;0
1579710336.2748823;-8.402473449707031;0
1579710336.2748938;-9.791648864746094;0
1579710336.2749057;-11.613410949707031;0
1579710336.2749164;-14.01458740234375;0
1579710336.2749276;-17.030380249023438;0
1579710336.2749393;-20.528526306152344;0
1579710336.274951;31.549999237060547;0
1579710336.274962;31.549999237060547;0
1579710336.274973;31.549999237060547;0
1579710336.2749836;31.549999237060547;0
1579710336.2749944;31.549999237060547;0
1579710336.2750056;31.549999237060547;0
1579710336.275017;31.549999237060547;0
1579710336.275028;31.549999237060547;0
1579710336.5155957;-24.25469207763672;0
1579710336.521715;-27.939964294433594;0
1579710336.5217772;-31.340042114257812;0
1579710336.5218196;-34.46568298339844;0
1579710336.5218444;-37.46159362792969;0
1579710336.5218642;-40.630767822265625;0
1579710336.5218782;-44.25867462158203;0
1579710336.5218906;-48.388824462890625;0
1579710336.5219028;-52.69414520263672;0
1579710336.5219193;-56.48298645019531;0
1579710336.521936;-58.87840270996094;0
1579710336.6284902;-59.07331085205078;0
1579710336.6346204;-56.65565490722656;0
1579710336.6346335;-51.705848693847656;0
1579710336.6346424;-44.76605224609375;0
1579710336.6346502;-36.66102600097656;0
1579710336.6346567;-28.1351318359375;0
1579710336.634663;-19.767532348632812;0
1579710336.6346698;-11.815773010253906;0
1579710336.634677;-4.3675994873046875;0
1579710336.6346834;2.5200958251953125;0
1579710336.63469;8.700584411621094;0
1579710336.7863626;13.997848510742188;0
1579710336.7943711;1.0625486373901367;0
1579710336.7943842;18.24622344970703;0
1579710336.7943923;21.371810913085938;0
1579710336.7943993;23.49517059326172;0
1579710336.794406;24.848617553710938;0
1579710336.7944126;25.685012817382812;0
1579710336.794419;26.222084045410156;0
1579710336.794426;26.57648468017578;0
1579710336.7944324;26.828140258789062;0
1579710336.7944427;27.082603454589844;0
1579710336.7944567;27.463180541992188;0
1579710336.965553;28.122421264648438;0
1579710336.972886;29.140335083007812;0
1579710336.9729073;30.408477783203125;0
1579710336.972921;31.669891357421875;0
1579710336.9729333;32.57726287841797;0
1579710336.972946;32.85127258300781;0
1579710336.9729576;32.342018127441406;0
1579710336.9729688;31.150901794433594;0
1579710336.9729798;29.522735595703125;0
1579710336.9729912;27.768882751464844;0
1579710336.9730027;26.109588623046875;0
1579710337.1580615;24.642845153808594;0
1579710337.1580713;23.378822326660156;0
1579710337.1580782;22.26678466796875;0
1579710337.1580846;21.230812072753906;0
1579710337.1580906;20.18682098388672;0
1579710337.1580966;18.97930908203125;0
1579710337.1581032;17.409034729003906;0
1579710337.1581092;15.275848388671875;0
1579710337.1581154;12.477531433105469;0
1579710337.1581218;9.052879333496094;0
1579710337.1581278;5.324729919433594;0
1579710337.1581347;0.2535814046859741;0
1579710337.1581407;0.25614285469055176;0
1579710337.158147;0.2535814046859741;0
1579710337.158153;0.2535814046859741;0
1579710337.1581593;0.2523007094860077;0
1579710337.1581652;0.2535814046859741;0
1579710337.3157198;1.726043701171875;0
1579710337.3235123;-1.37310791015625;0
1579710337.3235269;-3.8843460083007812;0
1579710337.323536;-5.947959899902344;0
1579710337.3235435;-7.9201507568359375;0
1579710337.323551;-10.125518798828125;0
1579710337.3235576;-12.706047058105469;0
1579710337.323572;-15.58831787109375;0
1579710337.3235795;-18.484092712402344;0
1579710337.323591;-21.131553649902344;0
1579710337.323599;-23.4205322265625;0
1579710337.4775078;-25.494895935058594;0
1579710337.4908469;-27.66149139404297;0
1579710337.490859;-30.296112060546875;0
1579710337.4908664;-33.647308349609375;0
1579710337.490873;-37.76295471191406;0
1579710337.4908798;-42.4560546875;0
1579710337.4908864;-47.383827209472656;0
1579710337.4908926;-52.029937744140625;0
1579710337.490899;-55.75572204589844;0
1579710337.4909055;-57.926849365234375;0
1579710337.4909117;-58.002540588378906;0
1579710337.7151136;-55.6734619140625;0
1579710338.2627335;31.549999237060547;0
1579710338.3149626;15.498764038085938;0
1579710338.3235462;13.651405334472656;0
1579710338.323568;11.326446533203125;0
1579710338.3235855;8.42718505859375;0
1579710338.3236022;5.0312652587890625;0
1579710338.323617;1.3884429931640625;0
1579710338.3236754;-2.2627029418945312;0
1579710338.323689;-5.756813049316406;0
1579710338.323704;-9.114120483398438;0
1579710338.3237195;-12.395835876464844;0
1579710338.3237336;-15.674270629882812;0
1579710338.515234;-18.92815399169922;0
1579710338.5210896;-22.020599365234375;0
1579710338.521111;-24.868804931640625;0
1579710338.521125;-27.533737182617188;0
1579710338.5211387;-30.239593505859375;0
1579710338.521152;-33.307037353515625;0
1579710338.5211647;-37.01155090332031;0
1579710338.5211766;-41.44648742675781;0
1579710338.521189;-46.58172607421875;0
1579710338.5212007;-52.17070007324219;0
1579710338.521221;-57.80818176269531;0
1579710338.6153617;0.25486212968826294;0
1579710338.621376;0.25486212968826294;0
1579710338.6213977;0.2523007094860077;0
1579710338.621414;0.2535814046859741;0
1579710338.6214283;0.2523007094860077;0
1579710338.6214428;0.2535814046859741;0
1579710338.657072;-62.88435363769531;0
1579710338.6651726;-66.62063598632812;0
1579710338.6651943;-68.11236572265625;0
1579710338.6652093;-66.65499877929688;0
1579710338.6652236;-61.964508056640625;0
1579710338.6652365;-54.325653076171875;0
1579710338.6652493;-44.60871887207031;0
1579710338.6652627;-33.957916259765625;0
1579710338.665275;-23.470916748046875;0
1579710338.6652875;-13.922042846679688;0
1579710338.6653;-5.6061859130859375;0
1579710338.8551097;1.583251953125;0
1579710338.8615582;7.9931182861328125;0
1579710338.8615847;13.918426513671875;0
1579710338.8615985;1.031297206878662;0
1579710338.8616083;19.480255126953125;0
1579710338.8616176;24.53692626953125;0
1579710338.8616295;28.764862060546875;0
1579710338.861637;31.81964111328125;0
1579710338.861645;33.47120666503906;0
1579710338.861651;33.85060119628906;0
1579710338.861657;33.30072021484375;0
1579710338.8621452;32.33262634277344;0
1579710338.9948967;31.352706909179688;0
1579710339.0004208;30.627487182617188;0
1579710339.0004475;30.200531005859375;0
1579710339.0004625;30.100479125976562;0
1579710339.000476;30.340591430664062;0
1579710339.0004883;30.90557861328125;0
1579710339.0004997;31.7567138671875;0
1579710339.000511;32.6881103515625;0
1579710339.000523;33.44816589355469;0
1579710339.0005345;33.76994323730469;0
1579710339.0005457;33.533447265625;0
1579710339.1831942;32.75621032714844;0
1579710339.1832116;31.580535888671875;0
1579710339.1832259;30.1123046875;0
1579710339.1832483;28.369598388671875;0
1579710339.1832607;26.344528198242188;0
1579710339.1832848;24.035797119140625;0
1579710339.183299;21.564727783203125;0
1579710339.1833124;19.109649658203125;0
1579710339.1833267;16.76422119140625;0
1579710339.18334;14.580352783203125;0
1579710339.1833537;12.481765747070312;0
1579710339.4084063;10.373306274414062;0
1579710339.408423;8.226287841796875;0
1579710339.408437;6.1191558837890625;0
1579710339.4084532;4.200286865234375;0
1579710339.4084663;2.564971923828125;0
1579710339.4084804;1.2449493408203125;0
1579710339.4084938;0.0801849365234375;0
1579710339.4085069;-1.09552001953125;0
1579710339.4085205;-2.492095947265625;0
1579710339.4085352;-4.2641754150390625;0
1579710339.4085486;-6.5301361083984375;0
1579710339.5855496;-9.275955200195312;0
1579710339.5959275;-12.431671142578125;0
1579710339.5959477;-15.81390380859375;0
1579710339.5959613;-19.1771240234375;0
1579710339.595974;-22.29388427734375;0
1579710339.5959876;-25.094879150390625;0
1579710339.596;-27.716506958007812;0
1579710339.5960119;-30.476898193359375;0
1579710339.5960243;-33.75230407714844;0
1579710339.5960362;-37.77125549316406;0
1579710339.5960474;-42.476806640625;0
1579710339.7051997;-47.4678955078125;0
1579710339.710642;-52.06028747558594;0
1579710339.7106738;-55.49592590332031;0
1579710339.7106957;-57.11433410644531;0
1579710339.7107155;-56.53004455566406;0
1579710339.7107337;-53.70074462890625;0
1579710340.27684;31.56999969482422;0
1579710340.2768483;31.56999969482422;0
1579710340.4453883;-0.29547119140625;0
1579710340.4509377;-2.666717529296875;0
1579710340.4509516;-4.5759735107421875;0
1579710340.4509606;-6.152496337890625;0
1579710340.4509678;-7.6107177734375;0
1579710340.4509747;-9.17388916015625;0
1579710340.450982;-11.017669677734375;0
1579710340.4509888;-13.23114013671875;0
1579710340.450995;-15.835830688476562;0
1579710340.4510012;-18.849838256835938;0
1579710340.451007;-22.236526489257812;0
1579710340.5666337;-26.001052856445312;0
1579710340.5764923;-30.119110107421875;0
1579710340.5765183;-34.546875;0
1579710340.5765378;-39.08076477050781;0
1579710340.5765564;-43.34901428222656;0
1579710340.5765834;-46.73371887207031;0
1579710340.5765991;-48.57539367675781;0
1579710340.576614;-48.29313659667969;0
1579710340.576629;-45.60588073730469;0
1579710340.5766432;-40.708740234375;0
1579710340.576658;-34.13999938964844;0
1579710340.7653666;-26.720840454101562;0
1579710340.770999;-19.198135375976562;0
1579710340.7710292;-12.097076416015625;0
1579710340.7710485;-5.6618194580078125;0
1579710340.771066;0.1152801513671875;0
1579710340.7711022;5.327667236328125;0
1579710340.7711155;10.09649658203125;0
1579710340.7711287;1.078174352645874;0
1579710340.7711415;14.396820068359375;0
1579710340.7711542;18.192031860351562;0
1579710340.7711666;21.343765258789062;0
1579710340.7711787;23.718734741210938;0
1579710340.9054968;25.229644775390625;0
1579710340.9125113;25.934555053710938;0
1579710340.9125314;26.007843017578125;0
1579710340.9125454;25.694992065429688;0
1579710340.9125574;25.2996826171875;0
1579710340.9125688;25.041091918945312;0
1579710340.912581;25.06341552734375;0
1579710340.912592;25.42230224609375;0
1579710340.9126022;26.1177978515625;0
1579710340.9126132;27.151992797851562;0
1579710340.9126236;28.456741333007812;0
1579710341.0558398;29.9080810546875;0
1579710341.061959;31.157302856445312;0
1579710341.0619802;31.82464599609375;0
1579710341.0619948;31.479354858398438;0
1579710341.0625029;29.980377197265625;0
1579710341.0625184;27.5394287109375;0
1579710341.0625298;24.63134765625;0
1579710341.0625415;21.829391479492188;0
1579710341.062553;19.507644653320312;0
1579710341.0625634;17.6884765625;0
1579710341.0625758;16.008941650390625;0
1579710341.251825;13.988601684570312;0
1579710341.251843;11.342727661132812;0
1579710341.2518594;8.118545532226562;0
1579710341.2518742;4.6877288818359375;0
1579710341.251888;1.4482879638671875;0
1579710341.2519102;-1.330963134765625;0
1579710341.2519236;-3.65838623046875;0
1579710341.2519376;-5.7451324462890625;0
1579710341.2519507;-7.8159027099609375;0
1579710341.251965;-9.901596069335938;0
1579710341.2519796;-11.939178466796875;0
1579710341.433421;-13.798171997070312;0
1579710341.433429;-15.366012573242188;0
1579710341.4334354;-16.775741577148438;0
1579710341.4334412;-18.301132202148438;0
1579710341.4334474;-20.325698852539062;0
1579710341.4334533;-23.310226440429688;0
1579710341.4334593;-27.565093994140625;0
1579710341.433465;-33.16172790527344;0
1579710341.4334714;-39.89372253417969;0
1579710341.4334774;-47.248443603515625;0
1579710341.4334838;-54.46675109863281;0
1579710341.646955;-60.82014465332031;0
1579710341.654645;-65.62994384765625;0
1579710341.654664;-68.39208984375;0
1579710341.6546793;-68.84153747558594;0
1579710341.6546917;-66.8780517578125;0
1579710341.6547043;-62.610626220703125;0
1579710341.6547165;-56.379486083984375;0
1579710341.6547287;-48.774871826171875;0
1579710341.6547399;-40.52772521972656;0
1579710341.6547513;-32.277313232421875;0
1579710341.6547623;-24.416412353515625;0
1579710341.6548417;0.2574235498905182;0
1579710341.6548529;0.2535814046859741;0
1579710341.654864;0.25614285469055176;0
1579710341.654875;0.2535814046859741;0
1579710341.6548862;0.2574235498905182;0
1579710341.6548972;0.25614285469055176;0
1579710341.7651982;-16.944503784179688;0
1579710341.7757623;-9.635147094726562;0
1579710341.7757916;-2.1557159423828125;0
1579710341.775807;5.611572265625;0
1579710341.7758217;13.489089965820312;0
1579710341.776279;0.8750400543212891;0
1579710341.7762952;21.026199340820312;0
1579710341.7763069;27.652191162109375;0
1579710341.7763176;32.87831115722656;0
1579710341.7763307;36.45442199707031;0
1579710341.7763412;38.50340270996094;0
1579710341.7763512;39.35302734375;0
1579710341.945135;39.516937255859375;0
1579710341.9505112;39.44719696044922;0
1579710341.9505265;39.4212646484375;0
1579710341.950535;39.52068328857422;0
1579710341.9505417;39.67036437988281;0
1579710341.9505494;39.73016357421875;0
1579710341.9505556;39.60143280029297;0
1579710341.9505615;39.273193359375;0
1579710341.9505675;38.70972442626953;0
1579710341.9505732;37.840782165527344;0
1579710341.95058;36.546424865722656;0
1579710342.1252162;34.753639221191406;0
1579710342.134938;32.46070861816406;0
1579710342.134962;29.848045349121094;0
1579710342.1349783;27.233734130859375;0
1579710342.1349933;24.900863647460938;0
1579710342.1350088;23.05865478515625;0
1579710342.1350315;21.705406188964844;0
1579710342.1350455;20.617828369140625;0
1579710342.1350613;19.479461669921875;0
1579710342.135075;17.98571014404297;0
1579710342.1350892;16.01091766357422;0
1579710342.255314;31.549999237060547;0
1579710342.2616863;31.549999237060547;0
1579710342.2617092;31.549999237060547;0
1579710342.2617223;31.549999237060547;0
1579710342.2617338;31.549999237060547;0
1579710342.2617455;31.549999237060547;0
1579710342.2617564;31.549999237060547;0
1579710342.2617695;31.549999237060547;0
1579710342.2617822;13.646102905273438;0
1579710342.2617939;11.186752319335938;0
1579710342.2618062;8.942306518554688;0
1579710342.2618177;7.1169281005859375;0
1579710342.2618375;5.698539733886719;0
1579710342.2618504;4.452484130859375;0
1579710342.261862;3.0841217041015625;0
1579710342.2618735;1.3344192504882812;0
1579710342.2618856;-0.8673477172851562;0
1579710342.2618976;-3.4964828491210938;0
1579710342.2619104;-6.429283142089844;0
1579710342.4456325;-9.617111206054688;0
1579710342.4456458;-13.060234069824219;0
1579710342.4456537;-16.76483917236328;0
1579710342.4459653;-20.632728576660156;0
1579710342.4459746;-24.484817504882812;0
1579710342.4459815;-28.151275634765625;0
1579710342.4459882;-31.47747039794922;0
1579710342.4513335;-34.53057098388672;0
1579710342.4513533;-37.52912139892578;0
1579710342.4513628;-40.77300262451172;0
1579710342.4513705;-44.41895294189453;0
1579710342.6362882;-48.36285400390625;0
1579710342.6450286;-52.21623229980469;0
1579710342.6450558;-55.345367431640625;0
1579710342.6450725;-57.10613250732422;0
1579710342.6450863;-56.98307800292969;0
1579710342.6450953;-54.78861999511719;0
1579710342.6451025;-50.73236083984375;0
1579710342.6451092;-45.26306915283203;0
1579710342.6451163;-38.980010986328125;0
1579710342.6451232;-32.44480895996094;0
1579710342.6451304;-26.048072814941406;0
1579710342.7763386;-20.014556884765625;0
1579710342.782788;-14.382270812988281;0
1579710342.7828195;-9.108024597167969;0
1579710342.7828405;-4.087860107421875;0
1579710342.782858;0.7505950927734375;0
1579710342.7828763;5.425628662109375;0
1579710342.7828927;9.822158813476562;0
1579710342.7829108;1.0000457763671875;0
1579710342.7829258;13.775283813476562;0
1579710342.7829401;17.04999542236328;0
1579710342.7829542;19.473388671875;0
1579710342.7829688;21.009986877441406;0
1579710342.9725986;21.73876953125;0
1579710342.972621;21.840652465820312;0
1579710342.9726365;21.496017456054688;0
1579710342.9726503;20.90771484375;0
1579710342.9726646;20.167770385742188;0
1579710342.97268;19.49017333984375;0
1579710342.972694;19.13262939453125;0
1579710342.9727085;19.359207153320312;0
1579710342.9727225;20.343360900878906;0
1579710342.972736;22.093666076660156;0
1579710342.9727492;24.5518798828125;0
1579710343.1259277;0.258704274892807;0
1579710343.1309729;0.2574235498905182;0
1579710343.130986;0.258704274892807;0
1579710343.1309943;0.25486212968826294;0
1579710343.131002;0.2574235498905182;0
1579710343.1310093;0.25614285469055176;0
1579710343.1310172;27.593154907226562;0
1579710343.131024;31.25782012939453;0
1579710343.1310303;35.561004638671875;0
1579710343.8932545;18.05237579345703;0
1579710343.893307;21.79126739501953;0
1579710343.9863486;24.564254760742188;0
1579710343.9943898;26.272018432617188;0
1579710343.9944267;27.017662048339844;0
1579710343.9945278;27.187828063964844;0
1579710343.9945533;27.210670471191406;0
1579710343.994568;27.49480438232422;0
1579710343.9945917;28.190414428710938;0
1579710343.9946072;29.152374267578125;0
1579710343.9946222;29.99456787109375;0
1579710343.9946356;30.341026306152344;0
1579710343.9946494;30.049392700195312;0
1579710344.1682308;29.22388458251953;0
1579710344.1743634;28.273818969726562;0
1579710344.1743839;27.572479248046875;0
1579710344.1743972;27.294525146484375;0
1579710344.1744103;27.295852661132812;0
1579710344.1744218;27.15283966064453;0
1579710344.1744328;26.351959228515625;0
1579710344.1744435;24.58092498779297;0
1579710344.1744542;21.877456665039062;0
1579710344.1744642;18.567726135253906;0
1579710344.174477;15.214225769042969;0
1579710344.2462387;31.549999237060547;0
1579710344.2529423;31.549999237060547;0
1579710344.2529685;31.549999237060547;0
1579710344.2529857;31.549999237060547;0
1579710344.2530005;31.549999237060547;0
1579710344.2530153;31.549999237060547;0
1579710344.2530305;31.549999237060547;0
1579710344.253045;31.549999237060547;0
1579710344.3252363;12.287223815917969;0
1579710344.3347223;10.000961303710938;0
1579710344.3347485;8.290031433105469;0
1579710344.3347647;6.8186492919921875;0
1579710344.3347821;5.231292724609375;0
1579710344.3347971;3.2654953002929688;0
1579710344.3348134;0.9180679321289062;0
1579710344.3348281;-1.697296142578125;0
1579710344.334844;-4.315513610839844;0
1579710344.3348582;-6.834602355957031;0
1579710344.3348727;-9.291969299316406;0
1579710344.506027;-11.858406066894531;0
1579710344.5139997;-14.747886657714844;0
1579710344.5140216;-17.99372100830078;0
1579710344.5140586;-21.425125122070312;0
1579710344.5140843;-24.810836791992188;0
1579710344.5140977;-28.013648986816406;0
1579710344.5141103;-31.094436645507812;0
1579710344.5141237;-34.38995361328125;0
1579710344.5165858;-38.25770568847656;0
1579710344.5166035;-42.83634948730469;0
1579710344.5166168;-47.85491180419922;0
1579710344.6656537;0.25614285469055176;0
1579710344.6728315;0.2535814046859741;0
1579710344.6728473;0.25486212968826294;0
1579710344.6728559;0.2574235498905182;0
1579710344.6728632;0.2574235498905182;0
1579710344.6728704;0.25486212968826294;0
1579710344.7053976;-52.5072021484375;0
1579710344.712197;-55.77741241455078;0
1579710344.712218;-56.76555633544922;0
1579710344.7122338;-54.987525939941406;0
1579710344.7122476;-50.54136657714844;0
1579710344.7122576;-43.97949981689453;0
1579710344.7122762;-36.058265686035156;0
1579710344.7122877;-27.534927368164062;0
1579710344.7122993;-18.91303253173828;0
1579710344.7123103;-10.436637878417969;0
1579710344.712322;-2.2151336669921875;0
1579710344.8451102;5.6768646240234375;0
1579710344.851295;13.058082580566406;0
1579710344.8513184;1.0625486373901367;0
1579710344.8513346;19.719253540039062;0
1579710344.8513505;25.38597869873047;0
1579710344.8513653;29.8446044921875;0
1579710344.85138;33.06147766113281;0
1579710344.851395;35.072532653808594;0
1579710344.8514092;36.05759811401367;0
1579710344.8514228;36.27295684814453;0
1579710344.8514366;35.96173858642578;0
1579710344.85145;35.38614273071289;0
1579710345.0673623;34.74624252319336;0
1579710345.0760643;34.104488372802734;0
1579710345.0760946;33.436397552490234;0
1579710345.0761247;32.66940689086914;0
1579710345.0761588;31.703109741210938;0
1579710345.0761971;30.53322982788086;0
1579710345.076232;29.193180084228516;0
1579710345.0762641;27.714813232421875;0
1579710345.076279;26.07754135131836;0
1579710345.0762918;24.159732818603516;0
1579710345.0763028;21.85150909423828;0
1579710345.2202468;19.13818359375;0
1579710345.2303917;16.17485809326172;0
1579710345.2304046;13.35879135131836;0
1579710345.230413;11.085014343261719;0
1579710345.2304213;9.569198608398438;0
1579710345.2304282;8.80905532836914;0
1579710345.2304347;8.52481460571289;0
1579710345.2304413;8.248916625976562;0
1579710345.230762;7.642864227294922;0
1579710345.2307696;6.541080474853516;0
1579710345.230776;5.045619964599609;0
1579710345.3653088;3.3990478515625;0
1579710345.3723023;1.9787025451660156;0
1579710345.372322;1.0629119873046875;0
1579710345.372339;0.7650108337402344;0
1579710345.3723526;0.9976692199707031;0
1579710345.3723652;1.4180412292480469;0
1579710345.3723783;1.5513877868652344;0
1579710345.3723907;0.9705848693847656;0
1579710345.3724031;-0.5721931457519531;0
1579710345.372416;-3.1167984008789062;0
1579710345.372428;-6.40447998046875;0
1579710345.5937147;-10.080314636230469;0
1579710345.5937333;-13.833213806152344;0
1579710345.5937486;-17.499603271484375;0
1579710345.5937626;-21.111328125;0
1579710345.593776;-24.7808837890625;0
1579710345.59379;-28.640907287597656;0
1579710345.593804;-32.776756286621094;0
1579710345.5938277;-37.293296813964844;0
1579710345.593842;-42.17157745361328;0
1579710345.5938568;-47.333534240722656;0
1579710345.5938706;-52.42030334472656;0
1579710345.775101;-56.81765365600586;0
1579710345.7836025;-59.659366607666016;0
1579710345.783617;-60.16448974609375;0
1579710345.7836773;-57.8443603515625;0
1579710345.7836878;-52.72547149658203;0
1579710345.7836964;-45.42565155029297;0
1579710345.7837033;-36.94847869873047;0
1579710345.7837107;-28.350738525390625;0
1579710345.7837179;-20.468250274658203;0
1579710345.7837243;-13.65157699584961;0
1579710345.7837312;-7.841129302978516;0
1579710345.8998713;-2.6641197204589844;0
1579710345.906603;2.2806777954101562;0
1579710345.9066231;7.235069274902344;0
1579710345.9066386;12.193450927734375;0
1579710345.9066534;0.9219172596931458;0
1579710345.9066668;16.953754425048828;0
1579710345.9066794;21.199726104736328;0
1579710345.906693;24.621078491210938;0
1579710345.9067142;27.075397491455078;0
1579710345.906728;28.625446319580078;0
1579710345.90674;29.494476318359375;0
1579710345.906753;30.012592315673828;0
1579710346.0770385;30.519363403320312;0
1579710346.085067;31.232337951660156;0
1579710346.0850904;32.29959487915039;0
1579710346.0860512;33.75625991821289;0
1579710346.0860736;35.53181838989258;0
1579710346.0860984;37.50297927856445;0
1579710346.086113;39.433082580566406;0
1579710346.0861287;41.10125732421875;0
1579710346.086144;42.21955108642578;0
1579710346.0861678;42.540283203125;0
1579710346.0861824;41.86582565307617;0
1579710346.1282566;0.25486212968826294;0
1579710346.1338387;0.2574235498905182;0
1579710346.1338568;0.2599849998950958;0
1579710346.1338675;0.2599849998950958;0
1579710346.133878;0.258704274892807;0
1579710346.1338873;0.2599849998950958;0
1579710346.2276037;40.22920608520508;0
1579710346.2398539;37.85177230834961;0
1579710346.2398744;35.05925369262695;0
1579710346.239889;32.23725509643555;0
1579710346.2399023;29.68077850341797;0
1579710346.2399168;27.44873046875;0
1579710346.2399304;25.407756805419922;0
1579710346.2399426;23.282573699951172;0
1579710346.239962;20.768287658691406;0
1579710346.239975;17.696319580078125;0
1579710346.2399871;14.127368927001953;0
1579710346.3152976;31.56999969482422;0
1579710346.3235805;31.56999969482422;0
1579710346.323603;31.56999969482422;0
1579710346.323616;31.56999969482422;0
1579710346.3236716;31.549999237060547;0
1579710346.323686;31.549999237060547;0
1579710346.323694;31.549999237060547;0
1579710346.3237007;31.549999237060547;0
1579710346.3756115;10.312366485595703;0
1579710346.3853412;6.598293304443359;0
1579710346.385355;3.2848892211914062;0
1579710346.385366;0.46205902099609375;0
1579710346.385374;-1.9019050598144531;0
1579710346.3853812;-4.011508941650391;0
1579710346.3853886;-6.108146667480469;0
1579710346.3853955;-8.377548217773438;0
1579710346.3854094;-10.86667251586914;0
1579710346.3854163;-13.540664672851562;0
1579710346.385423;-16.266456604003906;0
1579710346.6356864;-18.9117431640625;0
1579710346.6441445;-21.44696044921875;0
1579710346.6441581;-23.902694702148438;0
1579710346.6441674;-26.434444427490234;0
1579710346.6441748;-29.212623596191406;0
1579710346.644182;-32.3939323425293;0
1579710346.6441891;-36.0902214050293;0
1579710346.6444945;-40.30461502075195;0
1579710346.644503;-44.923404693603516;0
1579710346.6445096;-49.606468200683594;0
1579710346.6445155;-53.912654876708984;0
1579710346.7551951;-57.16779708862305;0
1579710346.7646391;-58.63143539428711;0
1579710346.7646508;-57.68635177612305;0
1579710346.7646582;-54.07081985473633;0
1579710346.764665;-47.99711227416992;0
1579710346.7646716;-40.1433219909668;0
1579710346.764678;-31.4075927734375;0
1579710346.764684;-22.615257263183594;0
1579710346.7646902;-14.340518951416016;0
1579710346.7646968;-6.825279235839844;0
1579710346.7647042;-0.061275482177734375;0
1579710346.9267428;5.961315155029297;0
1579710346.934333;11.247745513916016;0
1579710346.934349;1.0625486373901367;0
1579710346.9343567;15.668277740478516;0
1579710346.9343631;19.100269317626953;0
1579710346.9343693;21.521804809570312;0
1579710346.9343753;23.068866729736328;0
1579710346.934381;23.95049285888672;0
1579710346.9343872;24.446441650390625;0
1579710346.9343936;24.84381866455078;0
1579710346.9343998;25.292091369628906;0
1579710346.9344058;25.87757110595703;0
1579710347.096115;26.56637954711914;0
1579710347.1030555;27.278392791748047;0
1579710347.1030834;27.99396514892578;0
1579710347.103102;28.748485565185547;0
1579710347.1031182;29.63080596923828;0
1579710347.1031325;30.689842224121094;0
1579710347.1031444;31.842388153076172;0
1579710347.1031554;32.834228515625;0
1579710347.1031668;33.399906158447266;0
1579710347.1031783;33.33173751831055;0
1579710347.1031888;32.60165023803711;0
1579710347.255291;31.3023681640625;0
1579710347.2621725;29.649433135986328;0
1579710347.2621994;27.76172637939453;0
1579710347.2622163;25.644916534423828;0
1579710347.2622313;23.219928741455078;0
1579710347.2622457;20.40106964111328;0
1579710347.2622595;17.231746673583984;0
1579710347.2622736;13.864738464355469;0
1579710347.2622874;10.534236907958984;0
1579710347.2623024;7.408016204833984;0
1579710347.2623162;4.507907867431641;0
1579710347.4757626;1.693634033203125;0
1579710347.47578;-1.2021942138671875;0
1579710347.4763095;-4.322723388671875;0
1579710347.4763281;-7.6872711181640625;0
1579710347.4763527;-11.174758911132812;0
1579710347.4763656;-14.606739044189453;0
1579710347.476377;-17.877513885498047;0
1579710347.476389;-20.955577850341797;0
1579710347.4764;-23.883167266845703;0
1579710347.476411;-26.771316528320312;0
1579710347.4764225;-29.669055938720703;0
1579710347.6305592;-32.65985107421875;0
1579710347.6412628;-35.819828033447266;0
1579710347.6412818;-39.21894836425781;0
1579710347.6412945;-42.843135833740234;0
1579710347.6413066;-46.62474060058594;0
1579710347.6413178;-50.275184631347656;0
1579710347.6413288;-53.23532485961914;0
1579710347.6413472;-54.7994270324707;0
1579710347.6413586;-54.35431671142578;0
1579710347.6413696;-51.558406829833984;0
1579710347.64138;-46.5296630859375;0
1579710347.6413913;0.258704274892807;0
1579710347.6414025;0.2599849998950958;0
1579710347.6414137;0.2574235498905182;0
1579710347.6414247;0.258704274892807;0
1579710347.6414354;0.2574235498905182;0
1579710347.6414464;0.26126569509506226;0
1579710347.8055534;-39.87526321411133;0
1579710347.8130205;-32.49922180175781;0
1579710347.8130395;-25.34469223022461;0
1579710347.8130617;-19.06109619140625;0
1579710347.8130744;-13.884376525878906;0
1579710347.813087;-9.551959991455078;0
1579710347.8130987;-5.583034515380859;0
1579710347.8131104;-1.4919242858886719;0
1579710347.8131216;2.9884300231933594;0
1579710347.8131328;7.828052520751953;0
1579710347.813145;1.0000457763671875;0
1579710347.8131633;12.656566619873047;0
1579710348.0250776;17.02816390991211;0
1579710348.0336232;20.55615234375;0
1579710348.0336454;23.127578735351562;0
1579710348.0336602;24.869586944580078;0
1579710348.033674;26.09803009033203;0
1579710348.0336869;27.154525756835938;0
1579710348.0336993;28.268291473388672;0
1579710348.033732;29.521060943603516;0
1579710348.0337462;30.909149169921875;0
1579710348.0337615;32.39387130737305;0
1579710348.0337756;33.92691421508789;0
1579710348.105958;35.41110610961914;0
1579710348.113023;36.623924255371094;0
1579710348.1133285;37.35126876831055;0
1579710348.1133375;37.31928253173828;0
1579710348.1133447;36.383155822753906;0
1579710348.1133513;34.5419921875;0
1579710348.1133578;32.09201431274414;0
1579710348.113364;29.439064025878906;0
1579710348.1133702;26.988937377929688;0
1579710348.113376;25.058395385742188;0
1579710348.1133819;23.68476104736328;0
1579710348.2552805;31.56999969482422;0
1579710348.2613654;31.56999969482422;0
1579710348.2613955;31.56999969482422;0
1579710348.26141;31.56999969482422;0
1579710348.2614233;31.56999969482422;0
1579710348.2614362;31.56999969482422;0
1579710348.2614489;31.56999969482422;0
1579710348.2614615;31.56999969482422;0
1579710348.2955613;22.720813751220703;0
1579710348.3052948;21.85116958618164;0
1579710348.305325;20.75023651123047;0
1579710348.3053448;19.204612731933594;0
1579710348.30536;17.140445709228516;0
1579710348.305372;14.631641387939453;0
1579710348.3053834;11.848140716552734;0
1579710348.3053987;8.949432373046875;0
1579710348.3054147;6.079154968261719;0
1579710348.3054297;3.3072242736816406;0
1579710348.3054452;0.6266899108886719;0
1579710348.4579983;-2.086956024169922;0
1579710348.463432;-4.910106658935547;0
1579710348.463454;-7.939361572265625;0
1579710348.4634714;-11.18636703491211;0
1579710348.463484;-14.570991516113281;0
1579710348.4634974;-17.934947967529297;0
1579710348.4635105;-21.106956481933594;0
1579710348.463523;-23.91437530517578;0
1579710348.4635358;-26.38461685180664;0
1579710348.4635484;-28.67108917236328;0
1579710348.463561;-31.03583526611328;0
1579710348.6370091;-33.771419525146484;0
1579710348.641257;-37.040531158447266;0
1579710348.6412783;-40.872615814208984;0
1579710348.6412938;-45.06254577636719;0
1579710348.6413088;-49.281253814697266;0
1579710348.6413221;-53.030845642089844;0
1579710348.641336;-55.77567672729492;0
1579710348.6413505;-57.020442962646484;0
1579710348.641365;-56.29756546020508;0
1579710348.6413774;-53.439453125;0
1579710348.641391;-48.569881439208984;0
1579710348.8196716;-42.184120178222656;0
1579710348.8258767;-35.022525787353516;0
1579710348.825898;-27.814590454101562;0
1579710348.8259134;-21.076309204101562;0
1579710348.8259275;-14.930442810058594;0
1579710348.8259416;-9.183048248291016;0
1579710348.8259554;-3.4725074768066406;0
1579710348.8259711;2.3978538513183594;0
1579710348.825985;8.376640319824219;0
1579710348.825999;0.9844200611114502;0
1579710348.8260138;14.185482025146484;0
1579710348.8260276;19.381404876708984;0
1579710348.9663033;23.658798217773438;0
1579710349.4611247;26.933889389038086;0
1579710349.4611475;29.35749053955078;0
1579710349.461158;31.177621841430664;0
1579710349.4611669;32.69457244873047;0
1579710349.4611754;34.00231170654297;0
1579710349.4611855;35.144378662109375;0
1579710349.461196;36.06549072265625;0
1579710349.461202;36.752357482910156;0
1579710349.4612079;37.257293701171875;0
1579710349.461214;37.69219207763672;0
1579710349.4612653;0.258704274892807;0
1579710349.4612737;0.2599849998950958;0
1579710349.4612808;0.2599849998950958;0
1579710349.4612875;0.2625464200973511;0
1579710349.4612968;0.2599849998950958;0
1579710349.4613028;0.2625464200973511;0
1579710349.461309;38.12488555908203;0
1579710349.4613147;38.54163360595703;0
1579710349.4613206;38.84947967529297;0
1579710349.4613264;38.85780334472656;0
1579710349.4613323;38.43562698364258;0
1579710349.4613383;37.52872848510742;0
1579710349.461344;36.135902404785156;0
1579710349.4613535;34.353431701660156;0
1579710349.4613645;32.2875862121582;0
1579710349.4613717;30.035425186157227;0
1579710349.4619675;27.677732467651367;0
1579710349.4620132;25.29690933227539;0
1579710349.4620197;22.967958450317383;0
1579710349.4620254;20.744417190551758;0
1579710349.4620314;18.61882781982422;0
1579710349.4620373;16.50809097290039;0
1579710349.4620428;14.352943420410156;0
1579710349.4620488;12.109357833862305;0
1579710349.462055;9.748485565185547;0
1579710349.4620612;7.331035614013672;0
1579710349.4620667;4.942907333374023;0
1579710349.462073;2.6614837646484375;0
1579710349.506379;0.5538349151611328;0
1579710349.5124698;-1.3362846374511719;0
1579710349.5124927;-3.180004119873047;0
1579710349.5125017;-5.115734100341797;0
1579710349.5125093;-7.351833343505859;0
1579710349.512516;-9.985359191894531;0
1579710349.512523;-12.959354400634766;0
1579710349.5125291;-16.05486297607422;0
1579710349.5125353;-19.003631591796875;0
1579710349.5125415;-21.60329818725586;0
1579710349.5125482;-23.841655731201172;0
1579710349.6877544;-26.007678985595703;0
1579710349.6877759;-28.50369644165039;0
1579710349.6877916;-31.707042694091797;0
1579710349.694161;-35.79132843017578;0
1579710349.6941779;-40.62997817993164;0
1579710349.6941907;-45.690162658691406;0
1579710349.6942022;-50.210693359375;0
1579710349.694214;-53.34711837768555;0
1579710349.6942253;-54.35672378540039;0
1579710349.6942365;-52.81792068481445;0
1579710349.6942472;-48.70033264160156;0
1579710349.8704543;-42.41545486450195;0
1579710349.8753557;-34.664207458496094;0
1579710349.875376;-26.344154357910156;0
1579710349.8753905;-18.232948303222656;0
1579710349.8754034;-10.903324127197266;0
1579710349.8754177;-4.607124328613281;0
1579710349.875431;0.6719932556152344;0
1579710349.8754444;5.117641448974609;0
1579710349.8754566;8.930248260498047;0
1579710349.8754702;1.0156714916229248;0
1579710349.8754818;12.236572265625;0
1579710349.8754945;15.06268310546875;0
1579710350.0858898;17.385196685791016;0
1579710350.092982;19.154830932617188;0
1579710350.0930061;20.40255355834961;0
1579710350.0930247;21.220394134521484;0
1579710350.0930402;21.774627685546875;0
1579710350.093056;22.161632537841797;0
1579710350.0930703;22.48641586303711;0
1579710350.0930846;22.82223129272461;0
1579710350.0930998;23.267440795898438;0
1579710350.093113;23.967323303222656;0
1579710350.0931273;25.04027557373047;0
1579710350.1660802;26.483062744140625;0
1579710350.1721287;28.096553802490234;0
1579710350.1721473;29.56640625;0
1579710350.1721632;30.549671173095703;0
1579710350.1721785;30.783519744873047;0
1579710350.1721923;30.204715728759766;0
1579710350.1722064;28.89254379272461;0
1579710350.1728506;27.038177490234375;0
1579710350.1728714;24.81271743774414;0
1579710350.1728847;22.351070404052734;0
1579710350.1728954;19.693283081054688;0
1579710350.2495716;31.56999969482422;0
1579710350.256622;31.56999969482422;0
1579710350.2568326;31.56999969482422;0
1579710350.2568548;31.56999969482422;0
1579710350.2568688;31.56999969482422;0
1579710350.2568817;31.56999969482422;0
1579710350.2568939;31.56999969482422;0
1579710350.2569063;31.56999969482422;0
