1579081682.7475042;[0, 0]
1579081682.9483182;[0, 0]
1579081682.9483497;[0, 0]
1579081682.9483716;[0, 0]
1579081682.9483907;[0, 0]
1579081682.9484086;[0, 0]
1579081682.9484258;[0, 0]
1579081682.9484425;[0, 0]
1579081682.9484582;[0, 0]
1579081682.9484835;[-0.002231535268947482, 0]
1579081682.9485037;[0.0045169927179813385, 0]
1579081682.9486332;[0.011265521869063377, 0]
1579081682.9486518;[0.01138395071029663, 0]
1579081682.9486704;[-0.0011864507105201483, 0]
1579081682.9486883;[-0.025910312309861183, 0]
1579081682.9487062;[-0.05063418671488762, 0]
1579081682.948724;[-0.05136289447546005, 0]
1579081682.9487433;[0.0014929791213944554, 0]
1579081682.948763;[0.13024260103702545, 0]
1579081682.948781;[0.35562756657600403, 0]
1579081682.948799;[0.6591246724128723, 0]
1579081682.9488184;[1.0095102787017822, 0]
1579081682.9571455;[1.3709826469421387, 0]
1579081682.9571795;[1.719735860824585, 0]
1579081682.9572031;[2.055110454559326, 0]
1579081682.957224;[2.3994500637054443, 0]
1579081682.957244;[2.78666353225708, 0]
1579081682.9572613;[3.2399072647094727, 0]
1579081682.957279;[3.7960119247436523, 0]
1579081682.9572964;[4.418684005737305, 0]
1579081682.9573135;[5.059293746948242, 0]
1579081682.957331;[5.664409637451172, 0]
1579081682.9573512;[6.20215368270874, 0]
1579081683.0598567;[6.680879592895508, 0]
1579081683.066436;[7.149598121643066, 0]
1579081683.066469;[7.678233623504639, 0]
1579081683.0664935;[8.310738563537598, 0]
1579081683.066533;[9.143656730651855, 0]
1579081683.0665576;[10.089731216430664, 0]
1579081683.0665765;[11.041313171386719, 0]
1579081683.0665944;[11.884212493896484, 0]
1579081683.0666118;[12.564315795898438, 0]
1579081683.0666306;[13.135629653930664, 0]
1579081683.0666485;[13.76004409790039, 0]
1579081683.2091944;[14.65231990814209, 0]
1579081683.2198014;[15.962056159973145, 0]
1579081683.2198606;[17.91444206237793, 0]
1579081683.219913;[20.317298889160156, 0]
1579081683.2199602;[22.903854370117188, 0]
1579081683.220008;[25.379470825195312, 0]
1579081683.220053;[27.578027725219727, 0]
1579081683.22131;[29.572460174560547, 0]
1579081683.221338;[31.675172805786133, 0]
1579081683.221362;[34.31779861450195, 0]
1579081683.2213867;[37.81361770629883, 0]
1579081683.5603194;[42.54123306274414, 0]
1579081683.5749645;[48.14630126953125, 0]
1579081683.5749984;[54.10475540161133, 0]
1579081683.5750215;[59.833091735839844, 0]
1579081683.575042;[64.97237396240234, 0]
1579081683.5750635;[69.58293151855469, 0]
1579081683.575083;[74.1435317993164, 0]
1579081683.5751026;[79.34498596191406, 0]
1579081683.5751202;[85.70726013183594, 0]
1579081683.5751367;[93.76193237304688, 0]
1579081683.575155;[102.99778747558594, 0]
1579081683.5752852;[0, 0]
1579081683.5753067;[0.332965612411499, 0]
1579081683.5753262;[0.39699748158454895, 0]
1579081683.5753458;[0.3982781171798706, 0]
1579081683.5753634;[0.3982781171798706, 0]
1579081683.5753803;[0.39443621039390564, 0]
1579081683.583629;[112.61756896972656, 0]
1579081683.5836637;[121.73033905029297, 0]
1579081683.583689;[129.76602172851562, 0]
1579081683.5837088;[136.7510223388672, 0]
1579081683.583727;[143.30343627929688, 0]
1579081683.5837476;[150.74623107910156, 0]
1579081683.5837681;[157.7735595703125, 0]
1579081683.5837874;[166.6432342529297, 0]
1579081683.583805;[177.94798278808594, 0]
1579081683.5838225;[191.791015625, 0]
1579081683.5838408;[206.96807861328125, 0]
1579081683.7694528;[220.56591796875, 0]
1579081683.7766948;[228.24644470214844, 0]
1579081683.776727;[225.36154174804688, 0]
1579081683.7767506;[208.531982421875, 0]
1579081683.7767746;[176.8702392578125, 0]
1579081683.7767942;[132.76222229003906, 0]
1579081683.7768135;[80.04997253417969, 0]
1579081683.776833;[23.06927490234375, 0]
1579081683.7768524;[-34.943389892578125, 0]
1579081683.7768714;[-92.43695068359375, 0]
1579081683.77694;[-149.15695190429688, 0]
1579081683.8995147;[-205.22772216796875, 0]
1579081684.5895507;[-260.36962890625, 0]
1579081684.589577;[-313.7413330078125, 0]
1579081684.5895958;[-363.87396240234375, 0]
1579081684.5896108;[-409.8335266113281, 0]
1579081684.5896256;[-450.9077453613281, 0]
1579081684.5896392;[-486.50244140625, 0]
1579081684.5896528;[-515.7386474609375, 0]
1579081684.5902662;[-537.2274169921875, 0]
1579081684.590284;[-549.219970703125, 0]
1579081684.590299;[-549.9613037109375, 0]
1579081684.5903919;[-538.3670043945312, 0]
1579081684.5904055;[-514.2055053710938, 0]
1579081684.5904264;[-478.67401123046875, 0]
1579081684.590449;[-433.8795166015625, 0]
1579081684.5904737;[-382.4512634277344, 0]
1579081684.5904984;[-327.02105712890625, 0]
1579081684.5905154;[-269.84185791015625, 0]
1579081684.5905278;[-212.6337890625, 0]
1579081684.5905411;[-156.65939331054688, 0]
1579081684.5905538;[-102.95233154296875, 0]
1579081684.590567;[-52.37359619140625, 0]
1579081684.590581;[34.4900016784668, 0]
1579081684.590594;[34.4900016784668, 0]
1579081684.5906065;[34.4900016784668, 0]
1579081684.5906196;[34.4900016784668, 0]
1579081684.5906322;[34.4900016784668, 0]
1579081684.5915792;[34.4900016784668, 0]
1579081684.5915985;[34.4900016784668, 0]
1579081684.5916123;[34.4900016784668, 0]
1579081684.5917084;[-5.904693603515625, 0]
1579081684.591722;[35.580413818359375, 0]
1579081684.5917342;[71.42584228515625, 0]
1579081684.5917487;[101.35183715820312, 0]
1579081684.5917625;[125.50112915039062, 0]
1579081684.5917752;[144.37969970703125, 0]
1579081684.5917876;[158.69403076171875, 0]
1579081684.5917997;[169.1507110595703, 0]
1579081684.5918124;[176.37109375, 0]
1579081684.5918255;[180.7513885498047, 0]
1579081684.591838;[182.57418823242188, 0]
1579081684.6511838;[182.06863403320312, 0]
1579081684.6512058;[179.50660705566406, 0]
1579081684.6512232;[175.23324584960938, 0]
1579081684.6512403;[169.65283203125, 0]
1579081684.6512568;[163.17686462402344, 0]
1579081684.6512725;[156.14561462402344, 0]
1579081684.65129;[148.80702209472656, 0]
1579081684.651307;[141.29769897460938, 0]
1579081684.6513236;[133.6913604736328, 0]
1579081684.6513407;[126.0213623046875, 0]
1579081684.6513574;[118.3333511352539, 0]
1579081684.6513731;[110.68669128417969, 0]
1579081684.651389;[103.15090942382812, 0]
1579081684.6514046;[95.79962921142578, 0]
1579081684.6514206;[88.6849594116211, 0]
1579081684.651436;[81.8403549194336, 0]
1579081684.6514513;[75.27252960205078, 0]
1579081684.6514673;[68.98429870605469, 0]
1579081684.652186;[62.96569061279297, 0]
1579081684.652207;[57.22133255004883, 0]
1579081684.6522245;[51.762550354003906, 0]
1579081684.6522403;[46.60700988769531, 0]
1579081684.7928672;[41.777896881103516, 0]
1579081684.8047588;[37.28657531738281, 0]
1579081684.8047912;[33.13806915283203, 0]
1579081684.8048139;[29.311986923217773, 0]
1579081684.8048358;[25.78819465637207, 0]
1579081684.8048592;[22.529279708862305, 0]
1579081684.8049533;[19.516618728637695, 0]
1579081684.8049777;[16.742952346801758, 0]
1579081684.8049953;[14.217361450195312, 0]
1579081684.8050127;[11.961930274963379, 0]
1579081684.8050332;[9.987432479858398, 0]
1579081684.9216611;[8.29261589050293, 0]
1579081684.9315774;[6.842949867248535, 0]
1579081684.931611;[5.585498332977295, 0]
1579081684.9316368;[4.455449104309082, 0]
1579081684.931658;[3.4039950370788574, 0]
1579081684.9316773;[2.417201042175293, 0]
1579081684.9316957;[1.5259407758712769, 0]
1579081684.9317148;[0.7838841676712036, 0]
1579081684.9317331;[0.23865771293640137, 0]
1579081684.9317515;[-0.0945788025856018, 0]
1579081684.9317713;[-0.27330026030540466, 0]
1579081685.0150595;[0.39187490940093994, 0]
1579081685.0150928;[0.39187490940093994, 0]
1579081685.0151198;[0.39187490940093994, 0]
1579081685.0151708;[0.38931363821029663, 0]
1579081685.065365;[0.38931363821029663, 0]
1579081685.0653996;[0.3867523670196533, 0]
1579081685.0981696;[-0.4102618098258972, 0]
1579081685.1161373;[-0.6366080045700073, 0]
1579081685.116172;[-1.0388152599334717, 0]
1579081685.1161962;[-1.618473768234253, 0]
1579081685.1162174;[-2.2759666442871094, 0]
1579081685.1162374;[-2.839083194732666, 0]
1579081685.1162574;[-3.1614608764648438, 0]
1579081685.1162767;[-3.183422088623047, 0]
1579081685.1162956;[-3.0000829696655273, 0]
1579081685.1163135;[-2.8320705890655518, 0]
1579081685.1163309;[-2.9333043098449707, 0]
1579081685.8163996;[-3.478478193283081, 0]
1579081685.8164287;[-4.448726177215576, 0]
1579081685.8164468;[-5.6240644454956055, 0]
1579081685.816464;[-6.661491394042969, 0]
1579081685.8164804;[-7.254139423370361, 0]
1579081685.8164952;[-7.2892045974731445, 0]
1579081685.8165112;[-6.929958820343018, 0]
1579081685.816526;[-6.580825328826904, 0]
1579081685.817239;[-6.681346893310547, 0]
1579081685.8172603;[-7.53352165222168, 0]
1579081685.8172765;[-9.101630210876465, 0]
1579081685.8174112;[-11.019219398498535, 0]
1579081685.8174677;[-12.720489501953125, 0]
1579081685.8175094;[-13.774089813232422, 0]
1579081685.8175337;[-13.996858596801758, 0]
1579081685.8175514;[-13.594058990478516, 0]
1579081685.817587;[-13.058834075927734, 0]
1579081685.8176067;[-12.910345077514648, 0]
1579081685.8176224;[-13.525465965270996, 0]
1579081685.817639;[-15.106738090515137, 0]
1579081685.817655;[-17.676862716674805, 0]
1579081685.81767;[-21.020587921142578, 0]
1579081685.818879;[-24.51561164855957, 0]
1579081685.8188996;[-27.035276412963867, 0]
1579081685.8189163;[-27.117385864257812, 0]
1579081685.8189332;[-23.513477325439453, 0]
1579081685.8189492;[-15.85183334350586, 0]
1579081685.818965;[-5.077831268310547, 0]
1579081685.8189812;[6.7585906982421875, 0]
1579081685.818998;[17.23887825012207, 0]
1579081685.8190138;[24.560068130493164, 0]
1579081685.8190296;[28.15218162536621, 0]
1579081685.8190446;[28.6723690032959, 0]
1579081685.822494;[27.387950897216797, 0]
1579081685.8225243;[25.395814895629883, 0]
1579081685.822544;[23.16167449951172, 0]
1579081685.8225641;[20.568572998046875, 0]
1579081685.8225825;[17.37636947631836, 0]
1579081685.8225994;[13.711307525634766, 0]
1579081685.8226154;[10.22121810913086, 0]
1579081685.8226326;[7.896629333496094, 0]
1579081685.8226485;[7.689090728759766, 0]
1579081685.8226643;[10.088115692138672, 0]
1579081685.8226798;[14.924907684326172, 0]
1579081686.017556;[21.456798553466797, 0]
1579081686.0259712;[28.407196044921875, 0]
1579081686.0260026;[34.49541091918945, 0]
1579081686.0260253;[38.74709701538086, 0]
1579081686.0260494;[40.75531005859375, 0]
1579081686.02607;[40.715030670166016, 0]
1579081686.0260887;[39.22300338745117, 0]
1579081686.0261064;[36.90547561645508, 0]
1579081686.0261238;[34.15803527832031, 0]
1579081686.0261412;[31.145957946777344, 0]
1579081686.0261593;[27.824581146240234, 0]
1579081686.1544423;[24.236289978027344, 0]
1579081686.2309136;[20.549457550048828, 0]
1579081686.230952;[17.039962768554688, 0]
1579081686.2309752;[14.034172058105469, 0]
1579081686.2317529;[11.741230010986328, 0]
1579081686.2317767;[10.179996490478516, 0]
1579081686.2317967;[9.143121719360352, 0]
1579081686.2318153;[8.32142448425293, 0]
1579081686.2318335;[7.130823135375977, 0]
1579081686.2318513;[5.123689651489258, 0]
1579081686.2318711;[2.1071109771728516, 0]
1579081686.2318916;[34.4900016784668, 0]
1579081686.2319138;[34.4900016784668, 0]
1579081686.2319484;[34.4900016784668, 0]
1579081686.231976;[34.4900016784668, 0]
1579081686.231994;[34.470001220703125, 0]
1579081686.2320113;[34.470001220703125, 0]
1579081686.2320282;[34.470001220703125, 0]
1579081686.2320454;[34.470001220703125, 0]
1579081686.300034;[-1.821207046508789, 0]
1579081686.3000674;[-6.2617645263671875, 0]
1579081686.3000925;[-10.635318756103516, 0]
1579081686.3001125;[-14.428356170654297, 0]
1579081686.3001313;[-17.359346389770508, 0]
1579081686.3060184;[-19.459394454956055, 0]
1579081686.306051;[-20.953269958496094, 0]
1579081686.3060765;[-22.094453811645508, 0]
1579081686.3060975;[-23.036819458007812, 0]
1579081686.3061166;[-23.866743087768555, 0]
1579081686.3061361;[-24.621723175048828, 0]
1579081686.9012122;[-25.39324951171875, 0]
1579081686.9012375;[-26.22832489013672, 0]
1579081686.9012578;[-27.028688430786133, 0]
1579081686.9012768;[-27.3857421875, 0]
1579081686.9012952;[-26.62773895263672, 0]
1579081686.9013126;[-23.980676651000977, 0]
1579081686.9013336;[-18.95804786682129, 0]
1579081686.901368;[-11.65715503692627, 0]
1579081686.9013982;[-2.881349563598633, 0]
1579081686.9014168;[5.950082778930664, 0]
1579081686.901437;[13.278932571411133, 0]
1579081686.9014564;[0.38547173142433167, 0]
1579081686.901474;[0.3867523670196533, 0]
1579081686.901491;[0.38291046023368835, 0]
1579081686.9015086;[0.38547173142433167, 0]
1579081686.9015265;[0.3816298246383667, 0]
1579081686.901544;[0.38291046023368835, 0]
1579081686.9015634;[17.860788345336914, 0]
1579081686.9015808;[19.144916534423828, 0]
1579081686.901599;[17.40312385559082, 0]
1579081686.901616;[13.55020809173584, 0]
1579081686.9016345;[8.742698669433594, 0]
1579081686.9016516;[3.9551496505737305, 0]
1579081686.9016705;[-0.1782625913619995, 0]
1579081686.9016893;[-3.442840814590454, 0]
1579081686.9024954;[-5.848452568054199, 0]
1579081686.9043295;[-7.440526008605957, 0]
1579081686.904391;[-8.241341590881348, 0]
1579081686.9045434;[-8.279397964477539, 0]
1579081686.9045632;[-7.723610877990723, 0]
1579081686.9045863;[-6.868194580078125, 0]
1579081686.9046197;[-6.021167278289795, 0]
1579081686.904644;[-5.357332229614258, 0]
1579081686.904663;[-4.818350791931152, 0]
1579081686.9046826;[-4.218772888183594, 0]
1579081686.904701;[-3.406524658203125, 0]
1579081686.9047186;[-2.4345712661743164, 0]
1579081686.9047356;[-1.5719950199127197, 0]
1579081686.9047527;[-1.2389335632324219, 0]
1579081687.0404263;[-1.6738159656524658, 0]
1579081687.1115766;[-2.861905336380005, 0]
1579081687.1116145;[-4.560462951660156, 0]
1579081687.111639;[-6.471899032592773, 0]
1579081687.111661;[-8.337601661682129, 0]
1579081687.1116817;[-10.013772010803223, 0]
1579081687.1117027;[-11.373029708862305, 0]
1579081687.1117218;[-12.259860038757324, 0]
1579081687.1117399;[-12.70608139038086, 0]
1579081687.1117573;[-12.875794410705566, 0]
1579081687.1117752;[-13.122394561767578, 0]
1579081687.8732271;[-13.876953125, 0]
1579081687.8732648;[-15.389871597290039, 0]
1579081687.87329;[-17.468334197998047, 0]
1579081687.8733106;[-19.369985580444336, 0]
1579081687.8733292;[-20.021015167236328, 0]
1579081687.8733468;[-17.69977378845215, 0]
1579081687.8733666;[-11.330989837646484, 0]
1579081687.8733885;[-0.6982517242431641, 0]
1579081687.873408;[13.380983352661133, 0]
1579081687.8734267;[29.240020751953125, 0]
1579081687.8734448;[44.783565521240234, 0]
1579081687.8735733;[58.041690826416016, 0]
1579081687.873591;[67.60612487792969, 0]
1579081687.8736093;[72.90509796142578, 0]
1579081687.8736265;[74.14557647705078, 0]
1579081687.8736436;[72.00076293945312, 0]
1579081687.8736606;[67.41801452636719, 0]
1579081687.873678;[61.29642868041992, 0]
1579081687.873695;[54.393165588378906, 0]
1579081687.8737118;[47.25621032714844, 0]
1579081687.8737288;[40.27607345581055, 0]
1579081687.8737457;[33.732215881347656, 0]
1579081687.8756132;[27.843406677246094, 0]
1579081687.8756347;[22.784860610961914, 0]
1579081687.8756557;[18.619613647460938, 0]
1579081687.8756757;[15.41476058959961, 0]
1579081688.1358197;[34.4900016784668, 0]
1579081688.135846;[34.4900016784668, 0]
1579081688.1358664;[34.4900016784668, 0]
1579081688.1872184;[12.432037353515625, 0]
1579081688.1958516;[9.830612182617188, 0]
1579081688.1958935;[8.0994873046875, 0]
1579081688.195926;[7.130859375, 0]
1579081688.1959598;[6.6848297119140625, 0]
1579081688.1959908;[6.375762939453125, 0]
1579081688.1960194;[5.7507781982421875, 0]
1579081688.1960473;[4.3711090087890625, 0]
1579081688.1960742;[1.95489501953125, 0]
1579081688.207583;[-1.5499267578125, 0]
1579081688.2076097;[-5.9355926513671875, 0]
1579081688.4852543;[-10.815139770507812, 0]
1579081688.4852784;[-15.753372192382812, 0]
1579081688.485297;[-20.3760986328125, 0]
1579081688.485316;[-24.439849853515625, 0]
1579081688.4853342;[-27.895767211914062, 0]
1579081688.4853528;[-30.926483154296875, 0]
1579081688.4853737;[-33.96832275390625, 0]
1579081688.4853923;[-37.5604248046875, 0]
1579081688.4854114;[-42.10142517089844, 0]
1579081688.48543;[-47.52740478515625, 0]
1579081688.4854484;[-53.06889343261719, 0]
1579081688.5544527;[-57.336944580078125, 0]
1579081688.5544884;[-58.64720153808594, 0]
1579081688.5545115;[-55.602142333984375, 0]
1579081688.5545335;[-47.661895751953125, 0]
1579081688.5545537;[-35.39088439941406, 0]
1579081688.5545723;[-20.410858154296875, 0]
1579081688.5545902;[-4.8883056640625, 0]
1579081688.5546098;[9.055953979492188, 0]
1579081688.5546284;[19.93609619140625, 0]
1579081688.5546472;[27.151412963867188, 0]
1579081688.5546658;[30.946792602539062, 0]
1579081688.8919795;[32.09608459472656, 0]
1579081688.899784;[31.465103149414062, 0]
1579081688.8998172;[29.7110595703125, 0]
1579081688.8998404;[27.121246337890625, 0]
1579081688.8998632;[23.71685791015625, 0]
1579081688.8998842;[19.481094360351562, 0]
1579081688.8999026;[14.62225341796875, 0]
1579081688.8999195;[9.6580810546875, 0]
1579081688.8999364;[5.24871826171875, 0]
1579081688.8999538;[1.93011474609375, 0]
1579081688.899973;[-0.09307861328125, 0]
1579081688.9001052;[-1.0111083984375, 0]
1579081688.9001248;[-1.267242431640625, 0]
1579081688.9001427;[-1.32171630859375, 0]
1579081688.900161;[-1.49951171875, 0]
1579081688.901132;[-1.8951263427734375, 0]
1579081688.9011617;[-2.482635498046875, 0]
1579081688.9011815;[-3.1888427734375, 0]
1579081688.9012003;[-4.0117340087890625, 0]
1579081688.9012187;[-5.0571441650390625, 0]
1579081688.9012372;[-6.4445037841796875, 0]
1579081688.901255;[-8.294708251953125, 0]
1579081689.099375;[-10.60546875, 0]
1579081689.107602;[-13.342636108398438, 0]
1579081689.1076357;[-16.4984130859375, 0]
1579081689.1076598;[-20.152694702148438, 0]
1579081689.1076787;[-24.413681030273438, 0]
1579081689.1076975;[-29.207855224609375, 0]
1579081689.1077156;[-34.14332580566406, 0]
1579081689.1077332;[-38.29150390625, 0]
1579081689.1077504;[-40.428466796875, 0]
1579081689.1077678;[-39.296844482421875, 0]
1579081689.1077867;[-34.090362548828125, 0]
1579081689.2978141;[-24.798980712890625, 0]
1579081689.3174982;[-12.297027587890625, 0]
1579081689.3175333;[1.806610107421875, 0]
1579081689.3175557;[15.62384033203125, 0]
1579081689.3175747;[27.44476318359375, 0]
1579081689.3175917;[36.1363525390625, 0]
1579081689.3176076;[41.2735595703125, 0]
1579081689.317624;[43.119384765625, 0]
1579081689.3176425;[42.36163330078125, 0]
1579081689.3176632;[39.810333251953125, 0]
1579081689.3176816;[36.1470947265625, 0]
1579081689.3959196;[31.799835205078125, 0]
1579081689.4063933;[27.011077880859375, 0]
1579081689.4064271;[21.963653564453125, 0]
1579081689.4064515;[16.946136474609375, 0]
1579081689.4064722;[12.3663330078125, 0]
1579081689.406493;[8.621917724609375, 0]
1579081689.40651;[5.94793701171875, 0]
1579081689.4065287;[4.309661865234375, 0]
1579081689.4065459;[3.45751953125, 0]
1579081689.4065626;[2.99041748046875, 0]
1579081689.4065807;[2.578643798828125, 0]
1579081689.5426621;[0.39699748158454895, 0]
1579081689.542696;[0.3957168459892273, 0]
1579081689.5427175;[0.393155574798584, 0]
1579081689.5427353;[0.393155574798584, 0]
1579081689.542754;[0.388033002614975, 0]
1579081689.542773;[0.38931363821029663, 0]
1579081689.5760403;[1.976043701171875, 0]
1579081689.591998;[1.03009033203125, 0]
1579081689.5920298;[-0.4010009765625, 0]
1579081689.592058;[-2.429779052734375, 0]
1579081689.5920794;[-5.0833740234375, 0]
1579081689.5928648;[-8.2867431640625, 0]
1579081689.5929902;[-11.789337158203125, 0]
1579081689.5930169;[-15.2744140625, 0]
1579081689.593034;[-18.4986572265625, 0]
1579081689.5930507;[-21.4619140625, 0]
1579081689.5930686;[-24.4354248046875, 0]
1579081689.7507267;[-27.84210205078125, 0]
1579081689.7799222;[-32.035552978515625, 0]
1579081689.7799509;[-36.97381591796875, 0]
1579081689.77997;[-42.018463134765625, 0]
1579081689.7799857;[-45.955047607421875, 0]
1579081689.7800002;[-47.256805419921875, 0]
1579081689.7800143;[-44.609588623046875, 0]
1579081689.7800279;[-37.37548828125, 0]
1579081689.7800412;[-25.9427490234375, 0]
1579081689.7800555;[-11.725250244140625, 0]
1579081689.7800705;[3.221771240234375, 0]
1579081689.9319398;[16.77630615234375, 0]
1579081689.9319732;[27.34619140625, 0]
1579081689.931996;[34.22003173828125, 0]
1579081689.9320157;[37.58966064453125, 0]
1579081689.945232;[38.24395751953125, 0]
1579081689.9452674;[37.080963134765625, 0]
1579081689.945292;[34.808319091796875, 0]
1579081689.945312;[31.791046142578125, 0]
1579081689.9453332;[28.145904541015625, 0]
1579081689.9453542;[23.987335205078125, 0]
1579081689.9453728;[19.5308837890625, 0]
1579081690.1180375;[15.142822265625, 0]
1579081690.1283233;[11.19708251953125, 0]
1579081690.1283567;[7.93701171875, 0]
1579081690.128379;[5.42364501953125, 0]
1579081690.1283998;[3.573089599609375, 0]
1579081690.1284173;[2.24951171875, 0]
1579081690.1284342;[1.31585693359375, 0]
1579081690.1284537;[0.6348876953125, 0]
1579081690.1284723;[0.037322998046875, 0]
1579081690.1284897;[-0.708038330078125, 0]
1579081690.1285067;[-1.7872314453125, 0]
1579081690.1439862;[34.470001220703125, 0]
1579081690.144019;[34.470001220703125, 0]
1579081690.1440399;[34.470001220703125, 0]
1579081690.1440597;[34.470001220703125, 0]
1579081690.14408;[34.470001220703125, 0]
1579081690.1945083;[34.470001220703125, 0]
1579081690.1945424;[34.470001220703125, 0]
1579081690.1945658;[34.470001220703125, 0]
1579081690.259177;[-3.3121337890625, 0]
1579081690.348856;[-5.239227294921875, 0]
1579081690.3489733;[-7.42626953125, 0]
1579081690.3490014;[-9.7489013671875, 0]
1579081690.3497808;[-12.238494873046875, 0]
1579081690.3498075;[-15.09124755859375, 0]
1579081690.3498268;[-18.6368408203125, 0]
1579081690.3498464;[-23.158905029296875, 0]
1579081690.3498642;[-28.76739501953125, 0]
1579081690.3498836;[-35.181304931640625, 0]
1579081690.3499024;[-41.720794677734375, 0]
1579081690.4588292;[-47.30316162109375, 0]
1579081690.458855;[-50.6402587890625, 0]
1579081690.4588761;[-50.540069580078125, 0]
1579081690.4588912;[-46.2264404296875, 0]
1579081690.4589076;[-37.669952392578125, 0]
1579081690.4589233;[-25.670806884765625, 0]
1579081690.4589472;[-11.723175048828125, 0]
1579081690.4589674;[2.345245361328125, 0]
1579081690.4589822;[14.834320068359375, 0]
1579081690.4589953;[24.4940185546875, 0]
1579081690.4590108;[30.730438232421875, 0]
1579081690.7531657;[33.593994140625, 0]
1579081690.753194;[33.593963623046875, 0]
1579081690.7532153;[31.51690673828125, 0]
1579081690.7532341;[28.23419189453125, 0]
1579081690.7532537;[24.50555419921875, 0]
1579081690.753272;[20.82342529296875, 0]
1579081690.7532904;[17.338623046875, 0]
1579081690.7533095;[13.921539306640625, 0]
1579081690.7533278;[10.327117919921875, 0]
1579081690.7533457;[6.488372802734375, 0]
1579081690.753364;[2.634063720703125, 0]
1579081690.7723887;[-0.70367431640625, 0]
1579081690.7938504;[-2.953033447265625, 0]
1579081690.7938774;[-3.78326416015625, 0]
1579081690.7938943;[-3.3739013671875, 0]
1579081690.7939103;[-2.376556396484375, 0]
1579081690.793924;[-1.600006103515625, 0]
1579081690.793938;[-1.700286865234375, 0]
1579081690.7939522;[-2.926239013671875, 0]
1579081690.7939656;[-5.12030029296875, 0]
1579081690.7939796;[-7.880157470703125, 0]
1579081690.7939932;[-10.8568115234375, 0]
1579081691.1392794;[-13.83819580078125, 0]
1579081691.1628478;[-16.85467529296875, 0]
1579081691.1628811;[-20.02630615234375, 0]
1579081691.1629057;[-23.5211181640625, 0]
1579081691.1629272;[-27.53570556640625, 0]
1579081691.1629455;[-32.28375244140625, 0]
1579081691.1629665;[-37.829071044921875, 0]
1579081691.1629877;[-43.900238037109375, 0]
1579081691.1630056;[-49.707366943359375, 0]
1579081691.1630225;[-53.8843994140625, 0]
1579081691.16304;[-54.835205078125, 0]
1579081691.1639478;[0.388033002614975, 0]
1579081691.1639702;[0.3867523670196533, 0]
1579081691.1639893;[0.38419109582901, 0]
1579081691.1640072;[0.38547173142433167, 0]
1579081691.1640263;[0.38291046023368835, 0]
1579081691.1640456;[0.38291046023368835, 0]
1579081691.1640656;[-51.272979736328125, 0]
1579081691.1640847;[-42.810333251953125, 0]
1579081691.1641035;[-30.25140380859375, 0]
1579081691.1641219;[-15.425689697265625, 0]
1579081691.1641393;[-0.591888427734375, 0]
1579081691.1641574;[12.272003173828125, 0]
1579081691.1641743;[21.9517822265625, 0]
1579081691.1641917;[28.142913818359375, 0]
1579081691.1642094;[31.186981201171875, 0]
1579081691.1642263;[31.685791015625, 0]
1579081691.1645114;[30.190704345703125, 0]
1579081691.277977;[27.1634521484375, 0]
1579081691.3428283;[23.017730712890625, 0]
1579081691.3428743;[18.188995361328125, 0]
1579081691.3429086;[13.0699462890625, 0]
1579081691.342937;[7.97491455078125, 0]
1579081691.342965;[3.0595703125, 0]
1579081691.3429987;[-1.573394775390625, 0]
1579081691.343027;[-5.76922607421875, 0]
1579081691.3430529;[-9.22698974609375, 0]
1579081691.3430817;[-11.622650146484375, 0]
1579081691.3431115;[-12.808624267578125, 0]
1579081691.4756975;[-13.000762939453125, 0]
1579081691.554826;[-12.767242431640625, 0]
1579081691.5548663;[-12.775634765625, 0]
1579081691.5548916;[-13.52056884765625, 0]
1579081691.5549128;[-15.126617431640625, 0]
1579081691.554931;[-17.398956298828125, 0]
1579081691.5549483;[-20.034759521484375, 0]
1579081691.5549655;[-22.8314208984375, 0]
1579081691.5549848;[-25.733551025390625, 0]
1579081691.5550025;[-28.825897216796875, 0]
1579081691.555019;[-32.1754150390625, 0]
1579081691.6376593;[-35.80303955078125, 0]
1579081691.6696281;[-39.788818359375, 0]
1579081691.6696508;[-44.282867431640625, 0]
1579081691.6696649;[-49.446044921875, 0]
1579081691.669677;[-55.079986572265625, 0]
1579081691.6696877;[-60.3480224609375, 0]
1579081691.6697006;[-63.61395263671875, 0]
1579081691.6697118;[-62.67529296875, 0]
1579081691.6697242;[-55.37957763671875, 0]
1579081691.6697352;[-40.36907958984375, 0]
1579081691.6697464;[-17.697662353515625, 0]
1579081691.8207417;[11.02557373046875, 0]
1579081691.838181;[42.9346923828125, 0]
1579081691.8382115;[74.60220336914062, 0]
1579081691.838232;[102.91693115234375, 0]
1579081691.8382504;[125.70419311523438, 0]
1579081691.838267;[142.03076171875, 0]
1579081691.8382826;[152.07113647460938, 0]
1579081691.8382912;[156.67919921875, 0]
1579081691.8383002;[156.85867309570312, 0]
1579081691.8383083;[153.447509765625, 0]
1579081691.8383164;[146.9541015625, 0]
1579081691.9726448;[137.65933227539062, 0]
1579081691.9726748;[125.80081176757812, 0]
1579081691.9874713;[111.74835205078125, 0]
1579081691.9875038;[96.05279541015625, 0]
1579081691.9875255;[79.3973388671875, 0]
1579081691.9875472;[62.43121337890625, 0]
1579081691.987567;[45.628509521484375, 0]
1579081691.9875867;[29.259002685546875, 0]
1579081691.9876053;[13.416748046875, 0]
1579081691.9876254;[-1.816070556640625, 0]
1579081691.9876432;[-16.1981201171875, 0]
1579081692.1897068;[34.470001220703125, 0]
1579081692.1897392;[34.470001220703125, 0]
1579081692.189762;[34.470001220703125, 0]
1579081692.189782;[34.470001220703125, 0]
1579081692.1898012;[34.470001220703125, 0]
1579081692.18982;[34.470001220703125, 0]
1579081692.1898372;[34.470001220703125, 0]
1579081692.1898544;[34.470001220703125, 0]
1579081692.189874;[-29.25927734375, 0]
1579081692.189891;[-40.3936767578125, 0]
1579081692.1899104;[-49.16046142578125, 0]
1579081692.1899285;[-55.543212890625, 0]
1579081692.1899457;[-60.1109619140625, 0]
1579081692.1899629;[-63.81890869140625, 0]
1579081692.1899807;[-67.6357421875, 0]
1579081692.1899993;[-72.16104125976562, 0]
1579081692.1900165;[-77.47610473632812, 0]
1579081692.1900337;[-83.25152587890625, 0]
1579081692.1900508;[-89.07666015625, 0]
1579081692.389475;[-94.5634765625, 0]
1579081692.3894928;[-99.33905029296875, 0]
1579081692.3895047;[-102.75344848632812, 0]
1579081692.401362;[-103.75006103515625, 0]
1579081692.4013782;[-101.02899169921875, 0]
1579081692.40139;[-93.56845092773438, 0]
1579081692.4013996;[-81.221435546875, 0]
1579081692.4014096;[-64.97073364257812, 0]
1579081692.4014187;[-46.73016357421875, 0]
1579081692.4014282;[-28.71014404296875, 0]
1579081692.4014373;[-12.7335205078125, 0]
1579081692.5066488;[0.19830322265625, 0]
1579081692.5741298;[9.886077880859375, 0]
1579081692.5741465;[16.545623779296875, 0]
1579081692.5741577;[20.409423828125, 0]
1579081692.5741677;[21.583648681640625, 0]
1579081692.5741765;[20.143798828125, 0]
1579081692.5741842;[16.411376953125, 0]
1579081692.574193;[11.086029052734375, 0]
1579081692.574201;[5.1856689453125, 0]
1579081692.5742095;[-0.268798828125, 0]
1579081692.574219;[-4.544830322265625, 0]
1579081692.5742285;[0.393155574798584, 0]
1579081692.5742373;[0.38291046023368835, 0]
1579081692.574246;[0.38034918904304504, 0]
1579081692.5742543;[0.38291046023368835, 0]
1579081692.5742626;[0.38034918904304504, 0]
1579081692.5742707;[0.38034918904304504, 0]
1579081692.6689532;[-7.377197265625, 0]
1579081692.6689827;[-8.95343017578125, 0]
1579081692.6690018;[-9.67572021484375, 0]
1579081692.6690254;[-9.955413818359375, 0]
1579081692.6690457;[-10.02215576171875, 0]
1579081692.6690643;[-9.905059814453125, 0]
1579081692.6690843;[-9.538909912109375, 0]
1579081692.669103;[-8.903900146484375, 0]
1579081692.6691203;[-8.0916748046875, 0]
1579081692.6691391;[-7.37457275390625, 0]
1579081692.6691563;[-7.0859375, 0]
1579081692.9845235;[-7.5855712890625, 0]
1579081693.0222414;[-9.176513671875, 0]
1579081693.0222776;[-12.071624755859375, 0]
1579081693.0223033;[-16.328399658203125, 0]
1579081693.0223248;[-21.86346435546875, 0]
1579081693.0223432;[-28.324249267578125, 0]
1579081693.0223613;[-35.060333251953125, 0]
1579081693.0223792;[-41.037200927734375, 0]
1579081693.022398;[-44.9599609375, 0]
1579081693.0224168;[-45.56610107421875, 0]
1579081693.0224347;[-41.97052001953125, 0]
1579081693.048044;[-34.02978515625, 0]
1579081693.0480757;[-22.4439697265625, 0]
1579081693.0481029;[-8.606658935546875, 0]
1579081693.0481222;[5.7943115234375, 0]
1579081693.0481415;[19.17303466796875, 0]
1579081693.0481615;[30.444122314453125, 0]
1579081693.0481796;[38.998931884765625, 0]
1579081693.0481966;[44.614776611328125, 0]
1579081693.0482154;[47.248931884765625, 0]
1579081693.0482318;[46.9246826171875, 0]
1579081693.048251;[43.794647216796875, 0]
1579081693.3900306;[38.268829345703125, 0]
1579081693.4063725;[31.140594482421875, 0]
1579081693.4064054;[23.40899658203125, 0]
1579081693.4064283;[16.124969482421875, 0]
1579081693.4064481;[10.04248046875, 0]
1579081693.4064689;[5.476165771484375, 0]
1579081693.4064894;[2.285552978515625, 0]
1579081693.4065073;[0.090362548828125, 0]
1579081693.4065256;[-1.521087646484375, 0]
1579081693.4065425;[-2.815673828125, 0]
1579081693.40656;[-3.8792724609375, 0]
1579081693.4066913;[-4.71734619140625, 0]
1579081693.4067094;[-5.3922119140625, 0]
1579081693.4067278;[-6.060943603515625, 0]
1579081693.4067454;[-6.955352783203125, 0]
1579081693.4067614;[-8.27557373046875, 0]
1579081693.406778;[-10.17431640625, 0]
1579081693.4067972;[-12.770416259765625, 0]
1579081693.406815;[-16.2349853515625, 0]
1579081693.4068336;[-20.783477783203125, 0]
1579081693.40685;[-26.52978515625, 0]
1579081693.4068677;[-33.223876953125, 0]
1579081693.5882897;[-40.031097412109375, 0]
1579081693.5983863;[-45.536285400390625, 0]
1579081693.5984032;[-48.02996826171875, 0]
1579081693.5984151;[-46.137847900390625, 0]
1579081693.598425;[-39.298919677734375, 0]
1579081693.5984337;[-28.080810546875, 0]
1579081693.5984423;[-13.95391845703125, 0]
1579081693.5984504;[1.174407958984375, 0]
1579081693.5984592;[15.522613525390625, 0]
1579081693.5984676;[27.817001342773438, 0]
1579081693.598476;[37.35139465332031, 0]
1579081693.8086023;[43.92607116699219, 0]
1579081693.8239276;[47.61790466308594, 0]
1579081693.8239834;[48.7109375, 0]
1579081693.8240304;[47.592803955078125, 0]
1579081693.824054;[44.729339599609375, 0]
1579081693.8240752;[40.62507629394531, 0]
1579081693.8240948;[35.728973388671875, 0]
1579081693.824114;[30.436965942382812, 0]
1579081693.8241324;[25.097274780273438, 0]
1579081693.8241498;[20.032821655273438, 0]
1579081693.824168;[15.577529907226562, 0]
1579081693.8657951;[11.96685791015625, 0]
1579081693.8765786;[9.273117065429688, 0]
1579081693.8766112;[7.34466552734375, 0]
1579081693.8766365;[5.8403472900390625, 0]
1579081693.8766577;[4.3893280029296875, 0]
1579081693.8766773;[2.761993408203125, 0]
1579081693.8766954;[0.897064208984375, 0]
1579081693.876715;[-1.091644287109375, 0]
1579081693.877324;[-3.0577239990234375, 0]
1579081693.8773382;[-4.9202880859375, 0]
1579081693.87735;[-6.79437255859375, 0]
1579081694.0183578;[0.3790685534477234, 0]
1579081694.0183825;[0.3816298246383667, 0]
1579081694.018403;[0.3790685534477234, 0]
1579081694.0184214;[0.3765072822570801, 0]
1579081694.0184412;[0.37778791785240173, 0]
1579081694.0184605;[0.3752266466617584, 0]
1579081694.038973;[-8.972015380859375, 0]
1579081694.0682929;[-11.891525268554688, 0]
1579081694.0683239;[-16.004928588867188, 0]
1579081694.0683475;[-21.60565185546875, 0]
1579081694.0683668;[-28.586898803710938, 0]
1579081694.0683856;[-36.2852783203125, 0]
1579081694.0684035;[-43.43247985839844, 0]
1579081694.0684211;[-48.41412353515625, 0]
1579081694.0684395;[-49.68736267089844, 0]
1579081694.06846;[-46.24176025390625, 0]
1579081694.0684793;[-37.96095275878906, 0]
1579081694.1272886;[34.470001220703125, 0]
1579081694.1456537;[34.470001220703125, 0]
1579081694.1456873;[34.470001220703125, 0]
1579081694.1457102;[34.470001220703125, 0]
1579081694.1457303;[34.470001220703125, 0]
1579081694.1457496;[34.470001220703125, 0]
1579081694.1457703;[34.470001220703125, 0]
1579081694.145789;[34.470001220703125, 0]
1579081694.2409303;[-25.660125732421875, 0]
1579081694.240969;[-10.894378662109375, 0]
1579081694.2409956;[4.4791412353515625, 0]
1579081694.2410164;[18.714706420898438, 0]
1579081694.2410347;[30.577316284179688, 0]
1579081694.2410545;[39.38844299316406, 0]
1579081694.2410724;[45.01318359375, 0]
1579081694.2410905;[47.70997619628906, 0]
1579081694.2411103;[47.90641784667969, 0]
1579081694.241131;[46.092681884765625, 0]
1579081694.2411516;[42.680267333984375, 0]
1579081694.8462472;[38.076019287109375, 0]
1579081694.8462718;[32.691070556640625, 0]
1579081694.8462918;[27.007659912109375, 0]
1579081694.8463101;[21.570297241210938, 0]
1579081694.8463278;[16.829727172851562, 0]
1579081694.846346;[13.046127319335938, 0]
1579081694.846364;[10.172897338867188, 0]
1579081694.8463829;[7.906959533691406, 0]
1579081694.846403;[5.877601623535156, 0]
1579081694.8464217;[3.821868896484375, 0]
1579081694.846441;[1.7281951904296875, 0]
1579081694.8465607;[-0.21340179443359375, 0]
1579081694.8473747;[-1.7716751098632812, 0]
1579081694.8473983;[-2.8156509399414062, 0]
1579081694.8474205;[-3.462738037109375, 0]
1579081694.8474405;[-4.0475006103515625, 0]
1579081694.8474584;[-5.0012664794921875, 0]
1579081694.8474772;[-6.7700653076171875, 0]
1579081694.8474953;[-9.672843933105469, 0]
1579081694.8475142;[-13.923812866210938, 0]
1579081694.8487024;[-19.57032012939453, 0]
1579081694.8487298;[-26.40831756591797, 0]
1579081694.8488595;[-33.87818908691406, 0]
1579081694.8489022;[-40.94146728515625, 0]
1579081694.8489234;[-46.19127655029297, 0]
1579081694.8489408;[-48.06818389892578, 0]
1579081694.8489587;[-45.3616943359375, 0]
1579081694.8489764;[-37.62272644042969, 0]
1579081694.8489935;[-25.419723510742188, 0]
1579081694.8490124;[-10.273330688476562, 0]
1579081694.849029;[5.84088134765625, 0]
1579081694.8490472;[20.939979553222656, 0]
1579081694.8490646;[33.545631408691406, 0]
1579081694.9071243;[42.876800537109375, 0]
1579081694.9263115;[48.75969696044922, 0]
1579081694.9263434;[51.46392059326172, 0]
1579081694.9263659;[51.462730407714844, 0]
1579081694.9263854;[49.310142517089844, 0]
1579081694.9264038;[45.57440948486328, 0]
1579081694.9264202;[40.8270263671875, 0]
1579081694.9264362;[35.58399200439453, 0]
1579081694.9264526;[30.26401138305664, 0]
1579081694.926469;[25.200408935546875, 0]
1579081694.9264848;[20.620025634765625, 0]
1579081695.0657418;[16.697879791259766, 0]
1579081695.0950968;[13.55914306640625, 0]
1579081695.095123;[11.20855712890625, 0]
1579081695.0951424;[9.556632995605469, 0]
1579081695.0951593;[8.39590835571289, 0]
1579081695.095174;[7.467987060546875, 0]
1579081695.095189;[6.567390441894531, 0]
1579081695.0952034;[5.562335968017578, 0]
1579081695.0952172;[4.397762298583984, 0]
1579081695.0952315;[2.9755020141601562, 0]
1579081695.0952463;[1.1686363220214844, 0]
1579081695.2383187;[-1.1777191162109375, 0]
1579081695.247738;[-4.172313690185547, 0]
1579081695.24777;[-7.807613372802734, 0]
1579081695.247794;[-12.05356216430664, 0]
1579081695.2478158;[-16.927841186523438, 0]
1579081695.2478352;[-22.525936126708984, 0]
1579081695.2478538;[-28.900909423828125, 0]
1579081695.2478733;[-35.742950439453125, 0]
1579081695.2486563;[-42.16775131225586, 0]
1579081695.24868;[-46.671485900878906, 0]
1579081695.2486987;[-47.57018280029297, 0]
1579081696.0702968;[-43.58060836791992, 0]
1579081696.0703573;[-34.44305419921875, 0]
1579081696.0703862;[-21.103580474853516, 0]
1579081696.0704088;[-5.442951202392578, 0]
1579081696.0704288;[10.322114944458008, 0]
1579081696.0704477;[24.348270416259766, 0]
1579081696.0704663;[35.486488342285156, 0]
1579081696.0704842;[43.38557434082031, 0]
1579081696.0705028;[48.14293670654297, 0]
1579081696.07052;[50.05402374267578, 0]
1579081696.070538;[49.40069580078125, 0]
1579081696.0706737;[0.37778791785240173, 0]
1579081696.0706923;[0.37394601106643677, 0]
1579081696.0707097;[0.3752266466617584, 0]
1579081696.0707293;[0.3726653754711151, 0]
1579081696.0707483;[0.3765072822570801, 0]
1579081696.0707655;[0.3726653754711151, 0]
1579081696.0707843;[46.493980407714844, 0]
1579081696.0708017;[41.76359558105469, 0]
1579081696.0708191;[35.809940338134766, 0]
1579081696.0708368;[29.378311157226562, 0]
1579081696.0708535;[23.17067527770996, 0]
1579081696.0708709;[17.72173309326172, 0]
1579081696.0708885;[13.300592422485352, 0]
1579081696.0709064;[9.953634262084961, 0]
1579081696.0709257;[7.5009613037109375, 0]
1579081696.0721662;[5.695842742919922, 0]
1579081696.0721939;[4.22245979309082, 0]
1579081696.0723238;[2.7747058868408203, 0]
1579081696.0723426;[1.1275959014892578, 0]
1579081696.0723624;[-0.7978610992431641, 0]
1579081696.0723817;[-2.913846969604492, 0]
1579081696.0723994;[-5.002798080444336, 0]
1579081696.0724194;[-6.857086181640625, 0]
1579081696.0724375;[-8.423316955566406, 0]
1579081696.0724561;[-9.893205642700195, 0]
1579081696.0724745;[-11.663923263549805, 0]
1579081696.0724924;[-14.261114120483398, 0]
1579081696.07251;[-18.093994140625, 0]
1579081696.1360893;[-23.294754028320312, 0]
1579081696.13611;[-29.573190689086914, 0]
1579081696.136127;[-36.080406188964844, 0]
1579081696.1361458;[-41.555999755859375, 0]
1579081696.136164;[-44.48822784423828, 0]
1579081696.1361816;[-43.56043243408203, 0]
1579081696.136199;[-38.04079055786133, 0]
1579081696.1362164;[-28.103656768798828, 0]
1579081696.1362326;[-14.872288703918457, 0]
1579081696.953252;[27.850234985351562, 0]
1579081696.9532647;[37.330570220947266, 0]
1579081696.9532743;[43.6060905456543, 0]
1579081696.9532843;[46.71980285644531, 0]
1579081696.953294;[46.905452728271484, 0]
1579081696.9533565;[44.54075241088867, 0]
1579081696.9533656;[40.16514205932617, 0]
1579081696.953374;[34.483177185058594, 0]
1579081696.953383;[28.31012535095215, 0]
1579081696.9533923;[22.369342803955078, 0]
1579081696.953401;[17.179363250732422, 0]
1579081696.95391;[12.96019458770752, 0]
1579081696.9539254;[9.679411888122559, 0]
1579081696.953937;[7.173791885375977, 0]
1579081696.9539473;[5.278261661529541, 0]
1579081696.9539568;[3.852184772491455, 0]
1579081696.9549794;[2.7295584678649902, 0]
1579081696.955007;[1.6221389770507812, 0]
1579081696.9550312;[0.23496580123901367, 0]
1579081696.955046;[-1.6303014755249023, 0]
1579081696.9550574;[-3.942978858947754, 0]
1579081696.9550683;[-6.439544677734375, 0]
1579081696.9550784;[-8.807357788085938, 0]
1579081696.9550881;[-10.87295913696289, 0]
1579081696.9550977;[-12.838916778564453, 0]
1579081696.9551063;[-15.153998374938965, 0]
1579081696.9551163;[-18.369033813476562, 0]
1579081697.0099676;[0.3752266466617584, 0]
1579081697.0100026;[0.3726653754711151, 0]
1579081697.010025;[0.3752266466617584, 0]
1579081697.0100453;[0.37138473987579346, 0]
1579081697.0825846;[0.37138473987579346, 0]
1579081697.0826013;[0.37138473987579346, 0]
1579081697.1284635;[-22.904407501220703, 0]
1579081697.1504989;[-28.804231643676758, 0]
1579081697.1505287;[-35.70466995239258, 0]
1579081697.1505501;[-42.876041412353516, 0]
1579081697.1505675;[-49.28721618652344, 0]
1579081697.1505833;[-53.70817184448242, 0]
1579081697.150599;[-54.87568283081055, 0]
1579081697.1506155;[-51.809139251708984, 0]
1579081697.1506324;[-44.07848358154297, 0]
1579081697.150649;[-32.06855392456055, 0]
1579081697.1506653;[-16.976783752441406, 0]
1579081697.687034;[-0.5532989501953125, 0]
1579081697.7748208;[15.335407257080078, 0]
1579081697.7748327;[0.6094028949737549, 0]
1579081697.7748399;[29.17153549194336, 0]
1579081697.7748463;[40.010963439941406, 0]
1579081697.7748523;[47.501617431640625, 0]
1579081697.7748582;[51.72768020629883, 0]
1579081698.1670282;[34.470001220703125, 0]
1579081698.1670637;[34.470001220703125, 0]
1579081698.1670873;[34.470001220703125, 0]
1579081698.1671076;[34.45000076293945, 0]
1579081698.167127;[34.45000076293945, 0]
1579081698.167146;[34.45000076293945, 0]
1579081698.1671636;[34.45000076293945, 0]
1579081698.177026;[12.929969787597656, 0]
1579081698.1861079;[10.171466827392578, 0]
1579081698.1861422;[8.212963104248047, 0]
1579081698.1861656;[6.9126129150390625, 0]
1579081698.1861875;[5.975379943847656, 0]
1579081698.1862197;[5.005226135253906, 0]
1579081698.1862404;[3.6657028198242188, 0]
1579081698.1862593;[1.8237266540527344, 0]
1579081698.1862798;[-0.4147911071777344, 0]
1579081698.1862981;[-2.825336456298828, 0]
1579081698.186318;[-5.186923980712891, 0]
1579081698.3277068;[-7.421001434326172, 0]
1579081698.3406446;[-9.737258911132812, 0]
1579081698.3406746;[-12.531806945800781, 0]
1579081698.3406947;[-16.296672821044922, 0]
1579081698.3407118;[-21.433921813964844, 0]
1579081698.3407292;[-27.959049224853516, 0]
1579081698.3407474;[-35.34306716918945, 0]
1579081698.3407633;[-42.462677001953125, 0]
1579081698.3407807;[-47.73497009277344, 0]
1579081698.340797;[-49.51699447631836, 0]
1579081698.3408132;[-46.62421798706055, 0]
1579081698.5245738;[0.37138473987579346, 0]
1579081698.5246089;[0.3701041042804718, 0]
1579081698.5246317;[0.3726653754711151, 0]
1579081698.5246508;[0.37138473987579346, 0]
1579081698.5246706;[0.37778791785240173, 0]
1579081698.5246913;[0.3765072822570801, 0]
1579081698.5247135;[-38.717708587646484, 0]
1579081698.524733;[-26.46273422241211, 0]
1579081698.5247555;[-11.383003234863281, 0]
1579081698.5247905;[4.587558746337891, 0]
1579081698.5248122;[19.557113647460938, 0]
1579081698.5248322;[0.6406543254852295, 0]
1579081698.5248518;[32.091407775878906, 0]
1579081698.52487;[41.387332916259766, 0]
1579081698.5249798;[47.24257278442383, 0]
1579081698.5250022;[49.8555793762207, 0]
1579081698.5250194;[49.646728515625, 0]
1579081698.525037;[47.062801361083984, 0]
1579081698.72568;[42.51044845581055, 0]
1579081698.725704;[36.465938568115234, 0]
1579081698.725723;[29.488880157470703, 0]
1579081698.7257423;[22.308212280273438, 0]
1579081698.7265823;[15.726055145263672, 0]
1579081698.7266073;[10.436016082763672, 0]
1579081698.726627;[6.802440643310547, 0]
1579081698.7266457;[4.735637664794922, 0]
1579081698.7266636;[3.7136383056640625, 0]
1579081698.7266812;[3.0121612548828125, 0]
1579081698.7267015;[2.0465164184570312, 0]
1579081698.9348552;[0.5159416198730469, 0]
1579081698.9348679;[-1.5116310119628906, 0]
1579081698.9348783;[-3.7390518188476562, 0]
1579081698.934888;[-5.880252838134766, 0]
1579081698.9348967;[-7.8345794677734375, 0]
1579081698.9349065;[-9.72088623046875, 0]
1579081698.9349174;[-11.88531494140625, 0]
1579081698.9349277;[-14.77083969116211, 0]
1579081698.934937;[-18.780704498291016, 0]
1579081698.9349463;[-24.185821533203125, 0]
1579081698.9349558;[-30.926712036132812, 0]
1579081699.0171704;[-38.45311737060547, 0]
1579081699.028048;[-45.65032958984375, 0]
1579081699.0280757;[-50.97990417480469, 0]
1579081699.0280938;[-52.82911682128906, 0]
1579081699.0281088;[-50.05146408081055, 0]
1579081699.028124;[-42.367923736572266, 0]
1579081699.0281398;[-30.528892517089844, 0]
1579081699.0281546;[-16.13280487060547, 0]
1579081699.0281715;[-1.1009368896484375, 0]
1579081699.0281868;[12.762115478515625, 0]
1579081699.0282006;[24.173858642578125, 0]
1579081699.1990602;[0.6094028949737549, 0]
1579081699.2154794;[32.432830810546875, 0]
1579081699.2155108;[37.30863952636719, 0]
1579081699.2155333;[38.933937072753906, 0]
1579081699.215554;[37.66411590576172, 0]
1579081699.2155738;[34.07715606689453, 0]
1579081699.215593;[28.873634338378906, 0]
1579081699.2156126;[22.829345703125, 0]
1579081699.215639;[16.662620544433594, 0]
1579081699.2156713;[10.9349365234375, 0]
1579081699.2156935;[6.038017272949219, 0]
1579081699.2157116;[2.1951141357421875, 0]
1579081699.538346;[-0.5087356567382812, 0]
1579081699.5494251;[-2.1241302490234375, 0]
1579081699.5494537;[-2.871612548828125, 0]
1579081699.5494714;[-3.14910888671875, 0]
1579081699.5494883;[-3.4105300903320312, 0]
1579081699.5495036;[-4.1063995361328125, 0]
1579081699.5495186;[-5.446617126464844, 0]
1579081699.5495343;[-7.349357604980469, 0]
1579081699.54955;[-9.501968383789062, 0]
1579081699.5495663;[-11.561729431152344, 0]
1579081699.5502336;[-13.402236938476562, 0]
1579081699.5718362;[-15.273056030273438, 0]
1579081699.571863;[-17.74449920654297, 0]
1579081699.571883;[-21.463592529296875, 0]
1579081699.5718997;[-26.812591552734375, 0]
1579081699.571915;[-33.602516174316406, 0]
1579081699.5719287;[-40.97069549560547, 0]
1579081699.5719428;[-47.45994567871094, 0]
1579081699.5719583;[-51.363853454589844, 0]
1579081699.5719738;[-51.217376708984375, 0]
1579081699.5719876;[-46.17986297607422, 0]
1579081699.572002;[-36.335105895996094, 0]
1579081699.7461138;[-22.692092895507812, 0]
1579081699.7548265;[-6.911643981933594, 0]
1579081699.7548575;[9.077529907226562, 0]
1579081699.754879;[23.546485900878906, 0]
1579081699.7548995;[0.6094028949737549, 0]
1579081699.7549188;[35.26251983642578, 0]
1579081699.7549367;[43.655921936035156, 0]
1579081699.7549524;[48.72526550292969, 0]
1579081699.7549686;[50.84834289550781, 0]
1579081699.7549841;[50.529022216796875, 0]
1579081699.755;[48.20841979980469, 0]
1579081699.7550168;[44.181640625, 0]
1579081699.9320126;[38.728294372558594, 0]
1579081699.9455132;[32.192718505859375, 0]
1579081699.9455369;[25.134750366210938, 0]
1579081699.9455516;[18.325149536132812, 0]
1579081699.945566;[12.519508361816406, 0]
1579081699.9455805;[8.269371032714844, 0]
1579081699.9455936;[5.716987609863281, 0]
1579081699.945606;[4.5314178466796875, 0]
1579081699.9456174;[4.1078643798828125, 0]
1579081699.9456296;[3.7995758056640625, 0]
1579081699.945642;[3.1519241333007812, 0]
1579081700.0096014;[0.3816298246383667, 0]
1579081700.0196238;[0.38291046023368835, 0]
1579081700.0196567;[0.38419109582901, 0]
1579081700.019682;[0.39955875277519226, 0]
1579081700.0197039;[0.38419109582901, 0]
1579081700.0197241;[0.38419109582901, 0]
1579081700.0672383;[1.9469451904296875, 0]
1579081700.0820842;[0.19644927978515625, 0]
1579081700.0821187;[-2.0455169677734375, 0]
1579081700.0821404;[-4.7003631591796875, 0]
1579081700.0821621;[-7.737495422363281, 0]
1579081700.0821838;[-11.163986206054688, 0]
1579081700.0822055;[-15.035484313964844, 0]
1579081700.0822248;[-19.52904510498047, 0]
1579081700.0822437;[-24.910614013671875, 0]
1579081700.0822623;[-31.4417724609375, 0]
1579081700.0830736;[-39.09858703613281, 0]
1579081700.1625469;[34.43000030517578, 0]
1579081700.173221;[34.43000030517578, 0]
1579081700.1732545;[34.43000030517578, 0]
1579081700.1732771;[34.43000030517578, 0]
1579081700.173297;[34.43000030517578, 0]
1579081700.1733158;[34.43000030517578, 0]
1579081700.1733336;[34.43000030517578, 0]
1579081700.1733515;[34.43000030517578, 0]
1579081700.218555;[-47.33335876464844, 0]
1579081700.2274442;[-54.95848083496094, 0]
1579081700.2274802;[-60.30494689941406, 0]
1579081700.2275033;[-61.64848327636719, 0]
1579081700.2275238;[-57.72871398925781, 0]
1579081700.2275436;[-48.21427917480469, 0]
1579081700.2275622;[-33.845184326171875, 0]
1579081700.2275803;[-16.345367431640625, 0]
1579081700.2275991;[2.07476806640625, 0]
1579081700.2276173;[19.198867797851562, 0]
1579081700.2276378;[0.5781514644622803, 0]
1579081700.2276561;[33.37098693847656, 0]
1579081700.9693878;[43.741302490234375, 0]
1579081700.969405;[50.23585510253906, 0]
1579081700.9694188;[53.345428466796875, 0]
1579081700.9694316;[53.70954895019531, 0]
1579081700.9694452;[51.89878845214844, 0]
1579081700.9694598;[48.314605712890625, 0]
1579081700.9694724;[43.293212890625, 0]
1579081700.9694853;[37.2728271484375, 0]
1579081700.9694986;[30.875030517578125, 0]
1579081700.9695113;[24.8140869140625, 0]
1579081700.969524;[19.670608520507812, 0]
1579081700.9696093;[15.756484985351562, 0]
1579081700.969624;[13.04022216796875, 0]
1579081700.9696372;[11.28839111328125, 0]
1579081700.96965;[10.140029907226562, 0]
1579081700.969664;[9.315841674804688, 0]
1579081700.9696765;[8.528564453125, 0]
1579081700.9696896;[7.4995269775390625, 0]
1579081700.9697025;[5.9333953857421875, 0]
1579081700.969715;[3.590911865234375, 0]
1579081700.9705493;[0.3920745849609375, 0]
1579081700.9705694;[-3.53997802734375, 0]
1579081700.9706595;[-7.95611572265625, 0]
1579081700.9706748;[-12.659042358398438, 0]
1579081700.9706883;[-17.572357177734375, 0]
1579081700.970701;[-22.855865478515625, 0]
1579081700.9707146;[-28.780059814453125, 0]
1579081700.9707272;[-35.52049255371094, 0]
1579081700.9707406;[-43.01446533203125, 0]
1579081700.9707534;[-50.75807189941406, 0]
1579081702.2830882;[34.43000030517578, 0]
1579081702.283122;[34.45000076293945, 0]
1579081702.2831404;[34.45000076293945, 0]
1579081702.2831564;[34.45000076293945, 0]
1579081702.2831717;[34.45000076293945, 0]
1579081702.2872365;[-59.94630432128906, 0]
1579081702.294707;[-65.7502670288086, 0]
1579081702.2947228;[-68.5315170288086, 0]
1579081702.2947335;[-66.50155639648438, 0]
1579081702.294743;[-58.68018341064453, 0]
1579081702.2947516;[-45.34130096435547, 0]
1579081702.2947602;[-28.04114532470703, 0]
1579081702.2947702;[-9.109596252441406, 0]
1579081702.29478;[9.072425842285156, 0]
1579081702.294789;[24.69171142578125, 0]
1579081702.2947986;[0.6562800407409668, 0]
1579081702.2948074;[36.7767333984375, 0]
1579081702.472238;[45.130027770996094, 0]
1579081702.4833808;[49.96953582763672, 0]
1579081702.4834058;[51.67089080810547, 0]
1579081702.4834259;[50.597015380859375, 0]
1579081702.483443;[47.188880920410156, 0]
1579081702.4834576;[42.00236511230469, 0]
1579081702.4834716;[35.76769256591797, 0]
1579081702.4834883;[29.28790283203125, 0]
1579081702.4835029;[23.268035888671875, 0]
1579081702.4835188;[18.176422119140625, 0]
1579081702.4835334;[14.167861938476562, 0]
1579081702.6491108;[11.155311584472656, 0]
1579081702.6787698;[8.955352783203125, 0]
1579081702.678795;[7.423164367675781, 0]
1579081702.6788137;[6.523582458496094, 0]
1579081702.6788297;[6.323150634765625, 0]
1579081702.6788437;[6.835868835449219, 0]
1579081702.678872;[7.923427581787109, 0]
1579081702.6788862;[9.2242431640625, 0]
1579081702.678901;[10.178749084472656, 0]
1579081702.678914;[10.205181121826172, 0]
1579081702.6789272;[8.86294937133789, 0]
1579081702.8163726;[6.05169677734375, 0]
1579081702.8163824;[2.0431289672851562, 0]
1579081702.8163896;[-2.5803451538085938, 0]
1579081702.8163962;[-7.164691925048828, 0]
1579081702.8164027;[-11.210124969482422, 0]
1579081702.816409;[-14.545677185058594, 0]
1579081702.816415;[-17.407203674316406, 0]
1579081702.816421;[-20.27117919921875, 0]
1579081702.8164275;[-23.67349624633789, 0]
1579081702.8164337;[-27.999744415283203, 0]
1579081702.8164396;[-33.374305725097656, 0]
1579081703.0260053;[-39.585201263427734, 0]
1579081703.0263066;[-46.07794189453125, 0]
1579081703.026316;[-51.96296310424805, 0]
1579081703.0263233;[-56.07597351074219, 0]
1579081703.0263293;[-57.18671798706055, 0]
1579081703.0263352;[-54.2537841796875, 0]
1579081703.026342;[-46.77812957763672, 0]
1579081703.026348;[-35.05998992919922, 0]
1579081703.026354;[-20.241762161254883, 0]
1579081703.0263605;[-4.048616409301758, 0]
1579081703.0263672;[11.5885591506958, 0]
1579081703.0263743;[0.37778791785240173, 0]
1579081703.0263808;[0.38034918904304504, 0]
1579081703.026387;[0.3765072822570801, 0]
1579081703.0263925;[0.3790685534477234, 0]
1579081703.0263982;[0.3765072822570801, 0]
1579081703.026404;[0.3790685534477234, 0]
1579081703.22508;[25.055503845214844, 0]
1579081703.231433;[0.7656600475311279, 0]
1579081703.2314496;[35.378639221191406, 0]
1579081703.231461;[42.28837966918945, 0]
1579081703.2314706;[46.06613540649414, 0]
1579081703.23148;[47.1784553527832, 0]
1579081703.2314885;[46.05380630493164, 0]
1579081703.2314973;[43.00041580200195, 0]
1579081703.2315054;[38.302978515625, 0]
1579081703.2315137;[32.388694763183594, 0]
1579081703.2315235;[25.90283203125, 0]
1579081703.231532;[19.63272476196289, 0]
1579081703.306634;[14.271955490112305, 0]
1579081703.3151844;[10.182315826416016, 0]
1579081703.315211;[7.290654182434082, 0]
1579081703.315231;[5.185595512390137, 0]
1579081703.315248;[3.4444217681884766, 0]
1579081703.3152633;[1.9148540496826172, 0]
1579081703.315279;[0.8164043426513672, 0]
1579081703.3152943;[0.6127166748046875, 0]
1579081703.3153093;[1.6402873992919922, 0]
1579081703.3153236;[3.7978954315185547, 0]
1579081703.3153381;[6.415317535400391, 0]
1579081703.6356103;[8.416189193725586, 0]
1579081703.6436849;[8.741044998168945, 0]
1579081703.6436973;[6.791881561279297, 0]
1579081703.643708;[2.6047630310058594, 0]
1579081703.64372;[-3.1337356567382812, 0]
1579081703.643731;[-9.40280532836914, 0]
1579081703.6437428;[-15.269493103027344, 0]
1579081703.6437538;[-20.192974090576172, 0]
1579081703.643765;[-24.118736267089844, 0]
1579081703.643775;[-27.371482849121094, 0]
1579081703.6437852;[-30.47341537475586, 0]
1579081703.6755958;[-33.96332931518555, 0]
1579081703.699619;[-38.28313064575195, 0]
1579081703.6996467;[-43.6735954284668, 0]
1579081703.6996665;[-49.97587203979492, 0]
1579081703.6996827;[-56.48874282836914, 0]
1579081703.6996996;[-61.86651611328125, 0]
1579081703.6997159;[-64.37564086914062, 0]
1579081703.6997304;[-62.36274719238281, 0]
1579081703.699746;[-54.91301345825195, 0]
1579081703.6997604;[-42.28544616699219, 0]
1579081703.699775;[-25.985027313232422, 0]
1579081703.848064;[-8.303936004638672, 0]
1579081703.9221442;[8.415168762207031, 0]
1579081703.9221745;[22.430267333984375, 0]
1579081703.9221976;[0.718782901763916, 0]
1579081703.9222167;[32.91423797607422, 0]
1579081703.9222348;[39.86531066894531, 0]
1579081703.922253;[43.671546936035156, 0]
1579081703.92227;[44.81874084472656, 0]
1579081703.9222863;[43.685638427734375, 0]
1579081703.9223018;[40.611175537109375, 0]
1579081703.922317;[36.06697082519531, 0]
1579081703.9223325;[30.665802001953125, 0]
1579081704.0512688;[25.081565856933594, 0]
1579081704.0594192;[19.886062622070312, 0]
1579081704.0594356;[15.388107299804688, 0]
1579081704.0594473;[11.653556823730469, 0]
1579081704.05946;[8.574935913085938, 0]
1579081704.05947;[6.0476837158203125, 0]
1579081704.059479;[4.020256042480469, 0]
1579081704.0594878;[2.4941177368164062, 0]
1579081704.059497;[1.5132369995117188, 0]
1579081704.0595064;[1.0931015014648438, 0]
1579081704.0595157;[1.1997451782226562, 0]
1579081704.147872;[34.43000030517578, 0]
1579081704.154042;[34.43000030517578, 0]
1579081704.1540756;[34.43000030517578, 0]
1579081704.1540995;[34.43000030517578, 0]
1579081704.154119;[34.45000076293945, 0]
1579081704.1541371;[34.45000076293945, 0]
1579081704.1541545;[34.45000076293945, 0]
1579081704.1541717;[34.45000076293945, 0]
1579081704.1769564;[1.6923751831054688, 0]
1579081704.2425766;[2.2794647216796875, 0]
1579081704.2426088;[2.5651092529296875, 0]
1579081704.2426302;[2.1262969970703125, 0]
1579081704.2426512;[0.6661529541015625, 0]
1579081704.2426717;[-1.8029251098632812, 0]
1579081704.2426913;[-4.989265441894531, 0]
1579081704.2427082;[-8.419639587402344, 0]
1579081704.242728;[-11.707008361816406, 0]
1579081704.242748;[-14.755134582519531, 0]
1579081704.2435198;[-17.80138397216797, 0]
1579081704.3569362;[-21.29974365234375, 0]
1579081704.3674417;[-25.718650817871094, 0]
1579081704.3674598;[-31.26441192626953, 0]
1579081704.367474;[-37.69230651855469, 0]
1579081704.3674874;[-44.27996826171875, 0]
1579081704.3674986;[-49.886863708496094, 0]
1579081704.36751;[-53.149444580078125, 0]
1579081704.3675208;[-52.809043884277344, 0]
1579081704.3675318;[-48.02418518066406, 0]
1579081704.367542;[-38.693145751953125, 0]
1579081704.3675525;[-25.577774047851562, 0]
1579081704.5102413;[0.3765072822570801, 0]
1579081704.5196788;[0.37778791785240173, 0]
1579081704.5197124;[0.3752266466617584, 0]
1579081704.5197358;[0.37778791785240173, 0]
1579081704.5197558;[0.37778791785240173, 0]
1579081704.5197766;[0.3765072822570801, 0]
1579081704.54256;[-10.203521728515625, 0]
1579081704.5544226;[5.533790588378906, 0]
1579081704.554457;[19.833023071289062, 0]
1579081704.554483;[0.718782901763916, 0]
1579081704.5545046;[31.387779235839844, 0]
1579081704.5545247;[39.60126495361328, 0]
1579081704.554543;[44.52118682861328, 0]
1579081704.5545616;[46.59394836425781, 0]
1579081704.5545814;[46.368011474609375, 0]
1579081704.5546007;[44.30725860595703, 0]
1579081704.5546184;[40.78455352783203, 0]
1579081704.554638;[36.13208770751953, 0]
1579081704.8668933;[30.73339080810547, 0]
1579081704.866935;[25.044273376464844, 0]
1579081704.8669598;[19.52362823486328, 0]
1579081704.8669794;[14.498268127441406, 0]
1579081704.8669972;[10.133224487304688, 0]
1579081704.867016;[6.497032165527344, 0]
1579081704.8670366;[3.6231613159179688, 0]
1579081704.8670552;[1.6150588989257812, 0]
1579081704.8670747;[0.5452423095703125, 0]
1579081704.8670945;[0.37310028076171875, 0]
1579081704.8671124;[0.7672119140625, 0]
1579081704.8726127;[1.1841201782226562, 0]
1579081704.8726475;[0.982025146484375, 0]
1579081704.8726726;[-0.30812835693359375, 0]
1579081704.8726954;[-2.8041839599609375, 0]
1579081704.8727155;[-6.271736145019531, 0]
1579081704.872735;[-10.247360229492188, 0]
1579081704.8727546;[-14.278762817382812, 0]
1579081704.8727732;[-18.043807983398438, 0]
1579081704.8727922;[-21.52606201171875, 0]
1579081704.872811;[-24.957656860351562, 0]
1579081704.8737085;[-28.783294677734375, 0]
1579081705.3323805;[-33.444061279296875, 0]
1579081705.3324049;[-39.10906982421875, 0]
1579081705.3324244;[-45.46995544433594, 0]
1579081705.3324418;[-51.5872802734375, 0]
1579081705.3324609;[-56.02265930175781, 0]
1579081705.3324785;[-57.18898010253906, 0]
1579081705.3324962;[-53.86036682128906, 0]
1579081705.3325133;[-45.646087646484375, 0]
1579081705.3325334;[-33.19288635253906, 0]
1579081705.332551;[-18.028518676757812, 0]
1579081705.332569;[-2.1336822509765625, 0]
1579081705.3325858;[12.6119384765625, 0]
1579081705.3326044;[24.836822509765625, 0]
1579081705.3326247;[0.6875314712524414, 0]
1579081705.3326428;[33.78666687011719, 0]
1579081705.3326602;[39.27250671386719, 0]
1579081705.332678;[41.44932556152344, 0]
1579081705.3326955;[40.67063903808594, 0]
1579081705.3327127;[37.424224853515625, 0]
1579081705.3327303;[32.30926513671875, 0]
1579081705.3327475;[26.062042236328125, 0]
1579081705.3327644;[19.450454711914062, 0]
1579081705.3327804;[13.2144775390625, 0]
1579081705.37748;[7.8778839111328125, 0]
1579081705.3847606;[3.691986083984375, 0]
1579081705.3847947;[0.6021270751953125, 0]
1579081705.3848202;[-1.5799713134765625, 0]
1579081705.3848398;[-3.13250732421875, 0]
1579081705.3848593;[-4.289520263671875, 0]
1579081705.3849404;[-5.208526611328125, 0]
1579081705.384962;[-6.0150146484375, 0]
1579081705.3849823;[-6.7803497314453125, 0]
1579081705.385001;[-7.628204345703125, 0]
1579081705.385019;[-8.674484252929688, 0]
1579081705.6822958;[-10.036026000976562, 0]
1579081705.6823168;[-11.7557373046875, 0]
1579081705.6823332;[-13.8477783203125, 0]
1579081705.6823497;[-16.305007934570312, 0]
1579081705.682366;[-19.169586181640625, 0]
1579081705.682383;[-22.58746337890625, 0]
1579081705.6823995;[-26.772750854492188, 0]
1579081705.6824145;[-31.921104431152344, 0]
1579081705.6824303;[-38.05621337890625, 0]
1579081705.6824462;[-44.867103576660156, 0]
1579081705.682462;[-51.588836669921875, 0]
1579081705.7483468;[-57.109718322753906, 0]
1579081705.7553902;[-60.12830352783203, 0]
1579081705.7554162;[-59.4688720703125, 0]
1579081705.7554357;[-54.42713165283203, 0]
1579081705.7554522;[-44.9547119140625, 0]
1579081705.7561224;[-31.805686950683594, 0]
1579081705.7561421;[-16.330215454101562, 0]
1579081705.7561648;[-0.2636566162109375, 0]
1579081705.7561936;[14.688957214355469, 0]
1579081705.7562187;[27.190711975097656, 0]
1579081705.7562459;[0.6719057559967041, 0]
1579081705.7562728;[36.45049285888672, 0]
1579081705.887187;[42.297447204589844, 0]
1579081705.8944051;[45.02082061767578, 0]
1579081705.8944323;[45.18962860107422, 0]
1579081705.8944502;[43.38728332519531, 0]
1579081705.8944662;[40.13392639160156, 0]
1579081705.894481;[35.83451843261719, 0]
1579081705.8944952;[30.81586456298828, 0]
1579081705.8945098;[25.451934814453125, 0]
1579081705.8945234;[20.144935607910156, 0]
1579081705.8945374;[15.298896789550781, 0]
1579081705.8945541;[11.202766418457031, 0]
1579081706.006527;[0.3752266466617584, 0]
1579081706.012483;[0.37778791785240173, 0]
1579081706.0125163;[0.37394601106643677, 0]
1579081706.0125387;[0.37394601106643677, 0]
1579081706.0125587;[0.37138473987579346, 0]
1579081706.0125775;[0.3765072822570801, 0]
1579081706.0913966;[7.976539611816406, 0]
1579081706.0994847;[5.60174560546875, 0]
1579081706.099521;[3.9943389892578125, 0]
1579081706.0995445;[3.0266189575195312, 0]
1579081706.099564;[2.5778274536132812, 0]
1579081706.0995836;[2.4138336181640625, 0]
1579081706.0996027;[2.2211151123046875, 0]
1579081706.0996196;[1.58660888671875, 0]
1579081706.099641;[0.12586212158203125, 0]
1579081706.0996616;[-2.303802490234375, 0]
1579081706.0996804;[-5.586967468261719, 0]
1579081706.1286628;[34.43000030517578, 0]
1579081706.16217;[34.43000030517578, 0]
1579081706.1621861;[34.43000030517578, 0]
1579081706.1621976;[34.43000030517578, 0]
1579081706.1622071;[34.43000030517578, 0]
1579081706.162217;[34.43000030517578, 0]
1579081706.1622262;[34.43000030517578, 0]
1579081706.1622362;[34.43000030517578, 0]
1579081706.289486;[-9.321342468261719, 0]
1579081706.2986264;[-13.056686401367188, 0]
1579081706.2986588;[-16.471046447753906, 0]
1579081706.2986815;[-19.617576599121094, 0]
1579081706.2987034;[-22.98052215576172, 0]
1579081706.2987225;[-27.254287719726562, 0]
1579081706.2987423;[-33.03839874267578, 0]
1579081706.2987623;[-40.41539001464844, 0]
1579081706.2995646;[-48.660064697265625, 0]
1579081706.2995884;[-56.248321533203125, 0]
1579081706.2996085;[-61.18370056152344, 0]
1579081706.4264302;[-61.5697021484375, 0]
1579081706.917465;[-56.26136779785156, 0]
1579081706.9174855;[-45.27460479736328, 0]
1579081706.9174984;[-29.845321655273438, 0]
1579081706.917509;[-12.064308166503906, 0]
1579081706.9175184;[5.71435546875, 0]
1579081706.9175289;[21.508987426757812, 0]
1579081706.9175458;[0.6406543254852295, 0]
1579081706.917561;[34.08598709106445, 0]
1579081706.91757;[43.013282775878906, 0]
1579081706.91758;[48.4642333984375, 0]
1579081706.917589;[50.903079986572266, 0]
1579081706.917655;[50.83828353881836, 0]
1579081706.917664;[48.74897384643555, 0]
1579081706.9176738;[45.098384857177734, 0]
1579081706.9176824;[40.44314956665039, 0]
1579081706.9176915;[35.34934997558594, 0]
1579081706.9177003;[30.395172119140625, 0]
1579081706.9177089;[25.947940826416016, 0]
1579081706.9177172;[22.13611602783203, 0]
1579081706.9177263;[18.876220703125, 0]
1579081706.9177353;[16.03561019897461, 0]
1579081706.9177442;[13.529979705810547, 0]
1579081706.9184833;[11.384002685546875, 0]
1579081706.9184952;[9.729843139648438, 0]
1579081706.918506;[8.622535705566406, 0]
1579081706.9185154;[7.994173049926758, 0]
1579081706.9185243;[7.591440200805664, 0]
1579081706.9185326;[7.0699462890625, 0]
1579081706.9185417;[6.064212799072266, 0]
1579081706.9185503;[4.303167343139648, 0]
1579081706.9185598;[1.662282943725586, 0]
1579081706.9185688;[-1.8361568450927734, 0]
1579081706.9185786;[-6.041265487670898, 0]
1579081706.9751563;[-10.754833221435547, 0]
1579081706.9751768;[-15.791509628295898, 0]
1579081706.9751956;[-21.034420013427734, 0]
1579081706.975213;[-26.49483299255371, 0]
1579081706.97523;[-32.301414489746094, 0]
1579081706.9752474;[-38.607078552246094, 0]
1579081706.975263;[-45.35102462768555, 0]
1579081706.9752789;[-52.056705474853516, 0]
1579081706.9752948;[-57.7181510925293, 0]
1579081706.9753106;[-60.91107940673828, 0]
1579081706.9753282;[-60.2141227722168, 0]
1579081707.1148217;[-54.68941879272461, 0]
1579081707.1148367;[-44.33604431152344, 0]
1579081707.1148505;[-30.1234073638916, 0]
1579081707.1153502;[-13.8067626953125, 0]
1579081707.115368;[2.698387861251831, 0]
1579081707.1153839;[17.724285125732422, 0]
1579081707.1154006;[0.6406543254852295, 0]
1579081707.115416;[30.173744201660156, 0]
1579081707.115432;[39.502044677734375, 0]
1579081707.1154478;[45.54290008544922, 0]
1579081707.1154625;[48.416263580322266, 0]
1579081707.1154778;[48.430511474609375, 0]
1579081707.5194638;[46.136573791503906, 0]
1579081707.5872912;[42.21296310424805, 0]
1579081707.5873199;[37.40980529785156, 0]
1579081707.5873399;[32.322322845458984, 0]
1579081707.587358;[27.35256004333496, 0]
1579081707.5873747;[22.688478469848633, 0]
1579081707.5873897;[18.446733474731445, 0]
1579081707.587406;[14.787023544311523, 0]
1579081707.587422;[11.906610488891602, 0]
1579081707.5874372;[10.012218475341797, 0]
1579081707.5874531;[9.181360244750977, 0]
1579081707.5875678;[9.340551376342773, 0]
1579081707.5875838;[10.24593734741211, 0]
1579081707.5875998;[11.555156707763672, 0]
1579081707.587616;[12.82701301574707, 0]
1579081707.5876315;[13.5648193359375, 0]
1579081707.587647;[13.29635238647461, 0]
1579081707.5876634;[11.665096282958984, 0]
1579081707.587679;[8.583213806152344, 0]
1579081707.587695;[4.292308807373047, 0]
1579081707.58771;[-0.63525390625, 0]
1579081707.5877264;[-5.519950866699219, 0]
1579081707.5883632;[0.37138473987579346, 0]
1579081707.5883837;[0.37394601106643677, 0]
1579081707.5884004;[0.3726653754711151, 0]
1579081707.5884175;[0.37394601106643677, 0]
1579081707.5884335;[0.3726653754711151, 0]
1579081707.5884516;[0.37394601106643677, 0]
1579081707.6296887;[-9.810260772705078, 0]
1579081707.6365864;[-13.341842651367188, 0]
1579081707.6366036;[-16.461444854736328, 0]
1579081707.6366167;[-19.9149169921875, 0]
1579081707.6366286;[-24.54376220703125, 0]
1579081707.6366396;[-30.803001403808594, 0]
1579081707.6366491;[-38.385963439941406, 0]
1579081707.636659;[-46.07191467285156, 0]
1579081707.6366687;[-51.990753173828125, 0]
1579081707.636678;[-54.13323211669922, 0]
1579081707.6366885;[-51.011226654052734, 0]
1579081707.7777646;[-42.20030212402344, 0]
1579081707.7937815;[-28.45547103881836, 0]
1579081707.7938154;[-11.547943115234375, 0]
1579081707.7947466;[6.264427185058594, 0]
1579081707.7947886;[22.792110443115234, 0]
1579081707.7948287;[0.6719057559967041, 0]
1579081707.794864;[36.41238784790039, 0]
1579081707.794902;[46.2430534362793, 0]
1579081707.7949378;[52.1735725402832, 0]
1579081707.7949705;[54.65079879760742, 0]
1579081707.7950037;[54.374637603759766, 0]
1579081707.7950387;[52.08929443359375, 0]
1579081707.9573214;[48.394996643066406, 0]
1579081707.9664493;[43.748741149902344, 0]
1579081707.9664829;[38.525428771972656, 0]
1579081707.9665058;[33.145591735839844, 0]
1579081707.9665277;[28.033843994140625, 0]
1579081707.966547;[23.54309844970703, 0]
1579081707.9665663;[19.831390380859375, 0]
1579081707.9665854;[16.802749633789062, 0]
1579081707.966605;[14.290145874023438, 0]
1579081707.966625;[12.17279052734375, 0]
1579081707.9964328;[10.534393310546875, 0]
1579081708.1395395;[9.568428039550781, 0]
1579081708.1466742;[9.410690307617188, 0]
1579081708.146704;[9.910118103027344, 0]
1579081708.1467261;[10.572601318359375, 0]
1579081708.1467438;[10.646469116210938, 0]
1579081708.14676;[9.43585205078125, 0]
1579081708.1467779;[6.6078033447265625, 0]
1579081708.1467931;[2.3050689697265625, 0]
1579081708.14681;[-2.9115982055664062, 0]
1579081708.1468263;[-8.282577514648438, 0]
1579081708.146842;[-13.213577270507812, 0]
1579081708.1468587;[34.43000030517578, 0]
1579081708.1468759;[34.43000030517578, 0]
1579081708.1468923;[34.43000030517578, 0]
1579081708.1469076;[34.43000030517578, 0]
1579081708.146923;[34.40999984741211, 0]
1579081708.1469393;[34.40999984741211, 0]
1579081708.1469543;[34.40999984741211, 0]
1579081708.1469693;[34.40999984741211, 0]
1579081708.3396587;[-17.48662567138672, 0]
1579081708.3495092;[-21.318817138671875, 0]
1579081708.349538;[-25.28491973876953, 0]
1579081708.3495579;[-30.040924072265625, 0]
1579081708.3495746;[-36.02946472167969, 0]
1579081708.3495927;[-43.1632080078125, 0]
1579081708.3496091;[-50.68578338623047, 0]
1579081708.3496275;[-57.13653564453125, 0]
1579081708.3496451;[-60.721229553222656, 0]
1579081708.3496609;[-59.78703308105469, 0]
1579081708.3496768;[-53.37079620361328, 0]
1579081708.4680552;[-41.59757995605469, 0]
1579081708.47865;[-25.729034423828125, 0]
1579081708.4786785;[-7.844917297363281, 0]
1579081708.4786983;[9.758506774902344, 0]
1579081708.478716;[25.12628173828125, 0]
1579081708.478732;[0.6719057559967041, 0]
1579081708.4787483;[37.04596710205078, 0]
1579081708.478763;[45.120140075683594, 0]
1579081708.4787772;[49.5592041015625, 0]
1579081708.4787917;[50.89024353027344, 0]
1579081708.4788065;[49.689231872558594, 0]
1579081708.4788203;[46.499267578125, 0]
1579081708.6484804;[41.836761474609375, 0]
1579081708.654852;[36.239471435546875, 0]
1579081708.6548674;[30.242355346679688, 0]
1579081708.654878;[24.374908447265625, 0]
1579081708.6548872;[19.0386962890625, 0]
1579081708.6548958;[14.513252258300781, 0]
1579081708.654905;[10.916366577148438, 0]
1579081708.6549146;[8.213783264160156, 0]
1579081708.6549232;[6.309196472167969, 0]
1579081708.6549318;[5.030975341796875, 0]
1579081708.6549404;[4.2089691162109375, 0]
1579081708.9654698;[3.6576766967773438, 0]
1579081708.965488;[3.1747283935546875, 0]
1579081708.9655037;[2.497467041015625, 0]
1579081708.9655173;[1.3102798461914062, 0]
1579081708.965533;[-0.6526031494140625, 0]
1579081708.9655466;[-3.5601348876953125, 0]
1579081708.9655607;[-7.3500823974609375, 0]
1579081708.965575;[-11.784835815429688, 0]
1579081708.9655876;[-16.5498046875, 0]
1579081708.965601;[-21.40540313720703, 0]
1579081708.965614;[-26.35052490234375, 0]
1579081709.0108244;[-31.620689392089844, 0]
1579081709.022401;[-37.527374267578125, 0]
1579081709.022421;[-44.15386199951172, 0]
1579081709.0224354;[-51.05773162841797, 0]
1579081709.022447;[-57.197959899902344, 0]
1579081709.022458;[-61.081085205078125, 0]
1579081709.0224688;[-61.189735412597656, 0]
1579081709.0224798;[-56.54949951171875, 0]
1579081709.022491;[-47.10809326171875, 0]
1579081709.0225017;[-33.84056091308594, 0]
1579081709.022512;[-18.472686767578125, 0]
1579081709.0225239;[0.37138473987579346, 0]
1579081709.0225341;[0.3726653754711151, 0]
1579081709.0225441;[0.37138473987579346, 0]
1579081709.0225544;[0.37138473987579346, 0]
1579081709.0225651;[0.3701041042804718, 0]
1579081709.0225754;[0.3726653754711151, 0]
1579081709.7928367;[-2.929901123046875, 0]
1579081709.79384;[11.193901062011719, 0]
1579081709.7938766;[22.930770874023438, 0]
1579081709.79391;[31.952613830566406, 0]
1579081709.793942;[38.30206298828125, 0]
1579081709.7939742;[42.070533752441406, 0]
1579081709.7940075;[43.29949188232422, 0]
1579081709.7940397;[42.059242248535156, 0]
1579081709.7940726;[38.672943115234375, 0]
1579081709.7941039;[33.804588317871094, 0]
1579081709.7941391;[28.432815551757812, 0]
1579081709.7941704;[23.57293701171875, 0]
1579081709.7942042;[20.02019500732422, 0]
1579081709.7942367;[18.128257751464844, 0]
1579081709.7942677;[17.868423461914062, 0]
1579081709.7942994;[18.946067810058594, 0]
1579081709.7943313;[20.96862030029297, 0]
1579081709.794366;[23.58094024658203, 0]
1579081709.7943962;[26.45940399169922, 0]
1579081709.7944255;[29.317108154296875, 0]
1579081709.794459;[31.843353271484375, 0]
1579081709.7944856;[33.724578857421875, 0]
1579081709.7977717;[34.700096130371094, 0]
1579081709.7977986;[34.66642761230469, 0]
1579081709.7978225;[33.74232482910156, 0]
1579081709.797842;[32.276756286621094, 0]
1579081709.79786;[30.721939086914062, 0]
1579081709.7978785;[29.444076538085938, 0]
1579081709.797896;[28.539718627929688, 0]
1579081709.7979136;[27.737960815429688, 0]
1579081709.7979307;[26.4732666015625, 0]
1579081709.7979484;[24.08246612548828, 0]
1579081709.7979665;[20.061370849609375, 0]
1579081709.7981052;[14.206893920898438, 0]
1579081709.7981315;[6.6262969970703125, 0]
1579081709.7981496;[-2.3804168701171875, 0]
1579081709.7981794;[-12.384574890136719, 0]
1579081709.7982156;[-22.810218811035156, 0]
1579081709.7982533;[-32.79692077636719, 0]
1579081709.7982874;[-41.114768981933594, 0]
1579081709.7983193;[-46.275634765625, 0]
1579081709.7983527;[-46.910560607910156, 0]
1579081709.7983847;[-42.2838134765625, 0]
1579081709.7984195;[-32.686805725097656, 0]
1579081709.8478456;[-19.451759338378906, 0]
1579081709.859602;[-4.637886047363281, 0]
1579081709.8596187;[9.615310668945312, 0]
1579081709.8596303;[21.68738555908203, 0]
1579081709.8596408;[30.7332763671875, 0]
1579081709.8596506;[36.65338897705078, 0]
1579081709.8596594;[39.76750183105469, 0]
1579081709.8596683;[40.508033752441406, 0]
1579081709.8600717;[39.25739669799805, 0]
1579081709.8600821;[36.35773468017578, 0]
1579081709.8600907;[32.22290802001953, 0]
1579081710.1815155;[27.34777069091797, 0]
1579081710.2018685;[22.337352752685547, 0]
1579081710.2019024;[17.816017150878906, 0]
1579081710.2019267;[14.333816528320312, 0]
1579081710.2019463;[12.215702056884766, 0]
1579081710.2019649;[11.504531860351562, 0]
1579081710.2019835;[11.912601470947266, 0]
1579081710.2020009;[12.934146881103516, 0]
1579081710.2020185;[14.001434326171875, 0]
1579081710.202036;[14.638370513916016, 0]
1579081710.2020538;[14.578409194946289, 0]
1579081710.2021873;[34.40999984741211, 0]
1579081710.202206;[34.40999984741211, 0]
1579081710.2022235;[34.40999984741211, 0]
1579081710.2022414;[34.40999984741211, 0]
1579081710.2022586;[34.40999984741211, 0]
1579081710.202276;[34.40999984741211, 0]
1579081710.2022939;[34.40999984741211, 0]
1579081710.2023118;[34.40999984741211, 0]
1579081710.2085316;[13.775388717651367, 0]
1579081710.2163746;[12.304584503173828, 0]
1579081710.2164063;[10.301259994506836, 0]
1579081710.2164288;[7.867273330688477, 0]
1579081710.2164493;[5.024374008178711, 0]
1579081710.2164674;[1.7683649063110352, 0]
1579081710.2164876;[-1.9155588150024414, 0]
1579081710.2165055;[-6.086922645568848, 0]
1579081710.216526;[-10.847234725952148, 0]
1579081710.216546;[-16.396472930908203, 0]
1579081710.2165651;[-22.889509201049805, 0]
1579081710.3775938;[-30.32503318786621, 0]
1579081710.389184;[-38.336822509765625, 0]
1579081710.3892164;[-46.09902572631836, 0]
1579081710.38924;[-52.3950309753418, 0]
1579081710.3892598;[-55.76261520385742, 0]
1579081710.3892791;[-54.90563201904297, 0]
1579081710.3892992;[-49.05998229980469, 0]
1579081710.3893173;[-38.34764862060547, 0]
1579081710.3893354;[-23.902172088623047, 0]
1579081710.3893547;[-7.598823547363281, 0]
1579081710.389375;[8.37501335144043, 0]
1579081710.5069504;[0.3726653754711151, 0]
1579081710.5140514;[0.37138473987579346, 0]
1579081710.514069;[0.3701041042804718, 0]
1579081710.5140817;[0.3726653754711151, 0]
1579081710.5140922;[0.37138473987579346, 0]
1579081710.5141022;[0.37138473987579346, 0]
1579081710.540629;[22.07935333251953, 0]
1579081710.6027327;[32.200172424316406, 0]
1579081710.6027465;[38.1752815246582, 0]
1579081710.602755;[40.078975677490234, 0]
1579081710.602763;[38.42269515991211, 0]
1579081710.6027715;[33.82070541381836, 0]
1579081710.6027799;[26.89263916015625, 0]
1579081710.6027899;[18.166584014892578, 0]
1579081710.6028004;[8.16231918334961, 0]
1579081710.6028144;[-2.4984130859375, 0]
1579081710.6028259;[-12.918708801269531, 0]
1579081710.7239566;[-22.002517700195312, 0]
1579081710.7404304;[-28.675701141357422, 0]
1579081710.7404628;[-32.227622985839844, 0]
1579081710.7404876;[-32.61891555786133, 0]
1579081710.7405078;[-30.517139434814453, 0]
1579081710.740527;[-26.98633575439453, 0]
1579081710.7405453;[-23.06305694580078, 0]
1579081710.7405646;[-19.352466583251953, 0]
1579081710.7405818;[-15.981853485107422, 0]
1579081710.7405994;[-12.846569061279297, 0]
1579081710.7406185;[-9.981971740722656, 0]
1579081711.0140066;[-7.781669616699219, 0]
1579081711.0140314;[-6.890235900878906, 0]
1579081711.0140498;[-7.907356262207031, 0]
1579081711.0140698;[-11.049369812011719, 0]
1579081711.014088;[-16.1092529296875, 0]
1579081711.0141082;[-22.59527587890625, 0]
1579081711.0141265;[-29.950042724609375, 0]
1579081711.0141432;[-37.60707092285156, 0]
1579081711.0141609;[-44.88434600830078, 0]
1579081711.0141785;[-50.798675537109375, 0]
1579081711.0141954;[-54.043556213378906, 0]
1579081711.0490487;[-53.317161560058594, 0]
1579081711.0720212;[-47.7762451171875, 0]
1579081711.07204;[-37.48138427734375, 0]
1579081711.0720518;[-23.513427734375, 0]
1579081711.0720649;[-7.715324401855469, 0]
1579081711.0720758;[7.813385009765625, 0]
1579081711.0720863;[21.25249481201172, 0]
1579081711.0720956;[31.41173553466797, 0]
1579081711.072105;[37.75859069824219, 0]
1579081711.0721142;[40.332733154296875, 0]
1579081711.0721233;[39.532005310058594, 0]
1579081711.2292612;[35.96125030517578, 0]
1579081711.2395477;[30.31757354736328, 0]
1579081711.239573;[23.31201171875, 0]
1579081711.2395926;[15.620529174804688, 0]
1579081711.2396097;[7.853614807128906, 0]
1579081711.2396266;[0.4893951416015625, 0]
1579081711.2396438;[-6.0914459228515625, 0]
1579081711.2396593;[-11.613731384277344, 0]
1579081712.0952399;[0.388033002614975, 0]
1579081712.0952568;[0.3867523670196533, 0]
1579081712.1077735;[-15.1331148147583, 0]
1579081712.1077917;[-11.921348571777344, 0]
1579081712.107804;[-10.692737579345703, 0]
1579081712.107816;[-12.811996459960938, 0]
1579081712.1078265;[-18.93659210205078, 0]
1579081712.1078365;[-28.661766052246094, 0]
1579081712.1078463;[-40.3145866394043, 0]
1579081712.1078558;[-51.008583068847656, 0]
1579081712.1078653;[-57.115867614746094, 0]
1579081712.1078756;[-55.241485595703125, 0]
1579081712.1078854;[-43.43049240112305, 0]
1579081712.12725;[34.40999984741211, 0]
1579081712.1340544;[34.40999984741211, 0]
1579081712.1340811;[34.40999984741211, 0]
1579081712.1340988;[34.40999984741211, 0]
1579081712.134115;[34.40999984741211, 0]
1579081712.1341302;[34.40999984741211, 0]
1579081712.1341443;[34.40999984741211, 0]
1579081712.1341584;[34.40999984741211, 0]
1579081712.2476113;[-22.153797149658203, 0]
1579081712.254399;[5.444633483886719, 0]
1579081712.2544277;[34.329490661621094, 0]
1579081712.2544472;[59.162296295166016, 0]
1579081712.2544665;[76.08828735351562, 0]
1579081712.254485;[83.8988037109375, 0]
1579081712.2545023;[84.08843994140625, 0]
1579081712.2545183;[79.79390716552734, 0]
1579081712.2545335;[74.253662109375, 0]
1579081712.254549;[69.53191375732422, 0]
1579081712.2545652;[66.06818389892578, 0]
1579081712.4349592;[63.02903747558594, 0]
1579081712.4430602;[59.20079040527344, 0]
1579081712.4430788;[53.794578552246094, 0]
1579081712.4430916;[46.829811096191406, 0]
1579081712.4431045;[38.99597930908203, 0]
1579081712.4431157;[31.239356994628906, 0]
1579081712.4431272;[24.234352111816406, 0]
1579081712.4431376;[18.265823364257812, 0]
1579081712.4431477;[13.260940551757812, 0]
1579081712.4431586;[9.047393798828125, 0]
1579081712.4431696;[5.536567687988281, 0]
1579081712.6364253;[2.7247085571289062, 0]
1579081712.6433208;[0.61444091796875, 0]
1579081712.6433578;[-0.9190444946289062, 0]
1579081712.6433816;[-2.1944351196289062, 0]
1579081712.6434028;[-3.6329421997070312, 0]
1579081712.6434221;[-5.6513519287109375, 0]
1579081712.6434424;[-8.526390075683594, 0]
1579081712.6434646;[-12.34820556640625, 0]
1579081712.6443179;[-17.03913116455078, 0]
1579081712.6443443;[-22.48553466796875, 0]
1579081712.644364;[-28.59002685546875, 0]
1579081713.2464008;[-35.275726318359375, 0]
1579081713.2464182;[-42.28691101074219, 0]
1579081713.2464306;[-48.929779052734375, 0]
1579081713.2464411;[-53.967437744140625, 0]
1579081713.2464507;[-55.820037841796875, 0]
1579081713.2464612;[-52.99749755859375, 0]
1579081713.2464714;[-44.71641540527344, 0]
1579081713.246481;[-31.28692626953125, 0]
1579081713.2464905;[-14.189468383789062, 0]
1579081713.2464998;[4.280975341796875, 0]
1579081713.2465105;[21.674896240234375, 0]
1579081713.246582;[36.08845520019531, 0]
1579081713.2465918;[46.472015380859375, 0]
1579081713.2466009;[52.665924072265625, 0]
1579081713.2466106;[55.094635009765625, 0]
1579081713.24662;[54.464874267578125, 0]
1579081713.2466297;[51.64768981933594, 0]
1579081713.2466388;[47.46551513671875, 0]
1579081713.246648;[42.65679931640625, 0]
1579081713.2466574;[37.85198974609375, 0]
1579081713.2466667;[33.57450866699219, 0]
1579081713.246676;[30.187896728515625, 0]
1579081713.2472267;[27.746231079101562, 0]
1579081713.2472396;[26.035202026367188, 0]
1579081713.2472503;[24.76507568359375, 0]
1579081713.2472608;[24.124725341796875, 0]
1579081713.2472706;[24.516006469726562, 0]
1579081713.2472806;[26.271514892578125, 0]
1579081713.2472901;[29.407058715820312, 0]
1579081713.2472997;[33.47294616699219, 0]
1579081713.2473087;[37.5333251953125, 0]
1579081713.2473183;[40.30226135253906, 0]
1579081713.2473278;[40.495941162109375, 0]
1579081713.3236787;[37.305633544921875, 0]
1579081713.3237002;[31.393447875976562, 0]
1579081713.3237174;[24.046920776367188, 0]
1579081713.3237336;[16.514312744140625, 0]
1579081713.3237495;[9.58758544921875, 0]
1579081713.3237658;[3.5735626220703125, 0]
1579081713.3237822;[-1.3977508544921875, 0]
1579081713.3237982;[-5.3265838623046875, 0]
1579081713.3238146;[-8.314102172851562, 0]
1579081713.3238308;[-10.503616333007812, 0]
1579081713.3238466;[-11.031570434570312, 0]
1579081713.682909;[-9.288955688476562, 0]
1579081713.7441623;[-5.2927703857421875, 0]
1579081713.7441962;[0.641204833984375, 0]
1579081713.7442205;[8.573112487792969, 0]
1579081714.346397;[34.38999938964844, 0]
1579081714.3464217;[34.38999938964844, 0]
1579081714.3464408;[34.38999938964844, 0]
1579081714.3464606;[-130.60708618164062, 0]
1579081714.346478;[-128.17173767089844, 0]
1579081714.3464963;[-123.83257293701172, 0]
1579081714.3465137;[-119.43595886230469, 0]
1579081714.3465319;[-116.74986267089844, 0]
1579081714.3465493;[-116.82611083984375, 0]
1579081714.3465683;[-120.61335754394531, 0]
1579081714.3465858;[-127.92120361328125, 0]
1579081714.3466032;[-137.34771728515625, 0]
1579081714.3466203;[-146.09010314941406, 0]
1579081714.346639;[-150.89886474609375, 0]
1579081714.3468647;[-149.20074462890625, 0]
1579081714.3468993;[-140.00611877441406, 0]
1579081714.3469326;[-124.31742858886719, 0]
1579081714.3469667;[-104.60986328125, 0]
1579081714.3470051;[-84.56887817382812, 0]
1579081714.347039;[-67.28843688964844, 0]
1579081714.347074;[-54.56169128417969, 0]
1579081714.347745;[-46.48844909667969, 0]
1579081714.3477736;[-42.01823425292969, 0]
1579081714.3477945;[-39.614410400390625, 0]
1579081714.3478227;[-37.82759094238281, 0]
1579081714.502896;[-35.57353210449219, 0]
1579081714.5130992;[-32.09112548828125, 0]
1579081714.5131345;[-27.27246856689453, 0]
1579081714.5131583;[-21.160873413085938, 0]
1579081714.513179;[-14.026840209960938, 0]
1579081714.513199;[-6.487007141113281, 0]
1579081714.5132194;[0.39107513427734375, 0]
1579081714.5132382;[5.221824645996094, 0]
1579081714.513256;[6.6572418212890625, 0]
1579081714.5132756;[3.8543548583984375, 0]
1579081714.5132952;[-2.8849716186523438, 0]
1579081714.700199;[-12.1171875, 0]
1579081714.8871815;[-21.275230407714844, 0]
1579081714.8872514;[-27.53742218017578, 0]
1579081714.88731;[-28.78765869140625, 0]
1579081714.8873653;[-24.308570861816406, 0]
1579081714.8874185;[-14.91885757446289, 0]
1579081714.8874688;[-2.443206787109375, 0]
1579081714.8875175;[11.041061401367188, 0]
1579081714.887569;[23.863964080810547, 0]
1579081714.8876204;[34.945533752441406, 0]
1579081714.8876708;[43.79180145263672, 0]
1579081714.8955307;[50.20258331298828, 0]
1579081714.8955555;[54.14433288574219, 0]
1579081714.8955746;[55.769710540771484, 0]
1579081714.895594;[55.46871566772461, 0]
1579081714.896392;[53.91421890258789, 0]
1579081714.896416;[51.95345687866211, 0]
1579081714.8964362;[50.47296142578125, 0]
1579081714.896455;[50.23515701293945, 0]
1579081714.8964736;[51.79128646850586, 0]
1579081714.8964915;[55.39570617675781, 0]
1579081714.896509;[60.89326477050781, 0]
1579081715.0089183;[0.38034918904304504, 0]
1579081715.0180154;[0.3790685534477234, 0]
1579081715.0180533;[0.3867523670196533, 0]
1579081715.01808;[0.38931363821029663, 0]
1579081715.018104;[0.39699748158454895, 0]
1579081715.018127;[0.39443621039390564, 0]
1579081715.0181525;[67.73296356201172, 0]
1579081715.0181775;[75.06086730957031, 0]
1579081715.0182006;[82.099609375, 0]
1579081715.0182233;[88.49002838134766, 0]
1579081715.0182467;[94.59193420410156, 0]
1579081715.0182707;[101.25709533691406, 0]
1579081715.018295;[109.45799255371094, 0]
1579081715.0183182;[119.64362335205078, 0]
1579081715.0183413;[131.33558654785156, 0]
1579081715.0183647;[143.13320922851562, 0]
1579081715.0183883;[153.12905883789062, 0]
1579081715.589587;[159.6143035888672, 0]
1579081715.5896077;[161.6910858154297, 0]
1579081715.5896246;[159.4982147216797, 0]
1579081715.5896406;[154.02505493164062, 0]
1579081715.589656;[146.59056091308594, 0]
1579081715.5896711;[138.2722625732422, 0]
1579081715.5896883;[129.6138916015625, 0]
1579081715.589705;[120.65150451660156, 0]
1579081715.58972;[111.12702941894531, 0]
1579081715.589737;[100.78519439697266, 0]
1579081715.5897536;[89.44599914550781, 0]
1579081715.589857;[77.07037353515625, 0]
1579081715.5898733;[63.7397575378418, 0]
1579081715.5898888;[49.78470230102539, 0]
1579081715.5899036;[35.9133186340332, 0]
1579081715.5899196;[23.304428100585938, 0]
1579081715.5899346;[13.451644897460938, 0]
1579081715.5899515;[7.680107116699219, 0]
1579081715.5899663;[6.57427978515625, 0]
1579081715.589981;[9.6397705078125, 0]
1579081715.5899966;[15.351188659667969, 0]
1579081715.590975;[21.68609619140625, 0]
1579081715.5909994;[26.762229919433594, 0]
1579081715.5910184;[29.33826446533203, 0]
1579081715.5910363;[28.951995849609375, 0]
1579081715.5910525;[25.737945556640625, 0]
1579081715.5910692;[20.19354248046875, 0]
1579081715.5917742;[13.06640625, 0]
1579081715.5917974;[5.2634124755859375, 0]
1579081715.5918155;[-2.242889404296875, 0]
1579081715.5918312;[-8.708099365234375, 0]
1579081715.5918474;[-14.017547607421875, 0]
1579081715.5918627;[-19.00146484375, 0]
1579081715.7269473;[-25.314208984375, 0]
1579081715.739912;[-34.849700927734375, 0]
1579081715.7399302;[-48.834442138671875, 0]
1579081715.739946;[-66.94190979003906, 0]
1579081715.73996;[-87.02706909179688, 0]
1579081715.739975;[-105.58265686035156, 0]
1579081715.7399907;[-118.82965087890625, 0]
1579081715.7400045;[-123.99652099609375, 0]
1579081715.7400186;[-120.1922607421875, 0]
1579081715.740033;[-108.58834838867188, 0]
1579081715.7400482;[-91.89187622070312, 0]
1579081716.738976;[-73.36715698242188, 0]
1579081716.7390018;[-55.899688720703125, 0]
1579081716.7390182;[-41.428192138671875, 0]
1579081716.739034;[-30.84686279296875, 0]
1579081716.7390485;[-24.21893310546875, 0]
1579081716.7390618;[-21.156005859375, 0]
1579081716.7390747;[-21.07080078125, 0]
1579081716.739087;[-23.2769775390625, 0]
1579081716.7390997;[-26.9940185546875, 0]
1579081716.7391133;[-31.33038330078125, 0]
1579081716.7391264;[-35.419830322265625, 0]
1579081716.739222;[-38.57470703125, 0]
1579081716.7392344;[-40.480712890625, 0]
1579081716.739248;[-41.252471923828125, 0]
1579081716.7392604;[-41.3714599609375, 0]
1579081716.7392733;[-41.42694091796875, 0]
1579081716.739286;[-41.841583251953125, 0]
1579081716.7392986;[-42.666168212890625, 0]
1579081716.7393103;[-43.49755859375, 0]
1579081716.7393236;[-43.66326904296875, 0]
1579081716.7393363;[-42.466522216796875, 0]
1579081716.7393484;[-39.598968505859375, 0]
1579081716.740699;[34.38999938964844, 0]
1579081716.740715;[34.38999938964844, 0]
1579081716.7407284;[34.38999938964844, 0]
1579081716.7407408;[34.38999938964844, 0]
1579081716.7407534;[34.40999984741211, 0]
1579081716.740767;[34.40999984741211, 0]
1579081716.7407799;[34.40999984741211, 0]
1579081716.7407923;[34.40999984741211, 0]
1579081716.7408063;[-35.280853271484375, 0]
1579081716.7408192;[-30.3385009765625, 0]
1579081716.7408326;[-25.888824462890625, 0]
1579081716.7408466;[-22.986358642578125, 0]
1579081716.7414498;[-22.23175048828125, 0]
1579081716.7414672;[-23.57452392578125, 0]
1579081716.7414818;[-26.411407470703125, 0]
1579081716.7414944;[-29.84576416015625, 0]
1579081716.7415068;[-33.0865478515625, 0]
1579081716.7415202;[-35.669342041015625, 0]
1579081716.741533;[-37.586822509765625, 0]
1579081716.7416215;[-39.211761474609375, 0]
1579081716.7416348;[-41.08233642578125, 0]
1579081716.7416472;[-43.7138671875, 0]
1579081716.7416701;[-47.489105224609375, 0]
1579081716.7416947;[-52.49993896484375, 0]
1579081716.7424698;[-58.4132080078125, 0]
1579081716.742506;[-64.39483642578125, 0]
1579081716.742532;[-69.10943603515625, 0]
1579081716.7425468;[-70.9378662109375, 0]
1579081716.7425601;[-68.44903564453125, 0]
1579081716.7425737;[-60.87274169921875, 0]
1579081716.8039126;[0.39699748158454895, 0]
1579081716.803931;[0.39443621039390564, 0]
1579081716.8039453;[0.39443621039390564, 0]
1579081716.8039606;[0.4046812951564789, 0]
1579081716.8039749;[0.393155574798584, 0]
1579081716.8039885;[0.3905942738056183, 0]
1579081716.8040047;[-48.50567626953125, 0]
1579081716.804019;[-32.762359619140625, 0]
1579081716.804033;[-15.8323974609375, 0]
1579081716.8040466;[-0.042572021484375, 0]
1579081716.8040605;[12.796234130859375, 0]
1579081716.804074;[21.791290283203125, 0]
1579081716.8040867;[27.002532958984375, 0]
1579081716.8040996;[29.0960693359375, 0]
1579081716.8041131;[28.99151611328125, 0]
1579081716.8041265;[27.478363037109375, 0]
1579081716.8041394;[25.159637451171875, 0]
1579081716.8042276;[22.491119384765625, 0]
1579081716.8042417;[19.879058837890625, 0]
1579081716.8042543;[17.701812744140625, 0]
1579081716.8042672;[16.258941650390625, 0]
1579081716.804279;[15.6937255859375, 0]
1579081716.8042922;[15.974884033203125, 0]
1579081716.804681;[17.002532958984375, 0]
1579081716.8047;[18.64764404296875, 0]
1579081716.804714;[20.8826904296875, 0]
1579081716.8047285;[23.660736083984375, 0]
1579081716.8047426;[26.85015869140625, 0]
1579081716.9629116;[30.11614990234375, 0]
1579081716.9778664;[33.034759521484375, 0]
1579081716.977901;[35.17987060546875, 0]
1579081716.9779239;[36.287841796875, 0]
1579081716.9779432;[36.29736328125, 0]
1579081716.9787405;[35.243865966796875, 0]
1579081716.978767;[33.19793701171875, 0]
1579081716.9787877;[30.193023681640625, 0]
1579081716.9788063;[26.254302978515625, 0]
1579081716.9788244;[21.469146728515625, 0]
1579081716.9788435;[15.990020751953125, 0]
1579081717.07865;[10.02215576171875, 0]
1579081717.1564507;[3.749237060546875, 0]
1579081717.1564937;[-2.703277587890625, 0]
1579081717.156517;[-9.32965087890625, 0]
1579081717.1565392;[-16.175079345703125, 0]
1579081717.1565588;[-23.31671142578125, 0]
1579081717.1565764;[-30.69317626953125, 0]
1579081717.156594;[-37.9580078125, 0]
1579081717.156612;[-44.34356689453125, 0]
1579081717.156629;[-48.63818359375, 0]
1579081717.156647;[-49.43731689453125, 0]
1579081717.2365901;[-45.633270263671875, 0]
1579081717.2366228;[-36.968353271484375, 0]
1579081717.2366476;[-24.39935302734375, 0]
1579081717.2366693;[-10.014373779296875, 0]
1579081717.2366872;[3.5809326171875, 0]
1579081717.2367046;[14.159454345703125, 0]
1579081717.2367237;[20.561065673828125, 0]
1579081717.2615123;[22.965087890625, 0]
1579081717.2615333;[22.546112060546875, 0]
1579081717.2615476;[20.7540283203125, 0]
1579081717.2615602;[18.6807861328125, 0]
1579081717.8336022;[16.670928955078125, 0]
1579081717.8336134;[14.4306640625, 0]
1579081717.8336236;[11.44158935546875, 0]
1579081717.8336322;[7.3753662109375, 0]
1579081717.8336399;[2.3692626953125, 0]
1579081717.8336484;[-2.93865966796875, 0]
1579081717.833657;[-7.6033935546875, 0]
1579081717.8336663;[-10.47711181640625, 0]
1579081717.8336751;[-10.259765625, 0]
1579081717.8336835;[-5.51202392578125, 0]
1579081717.8336916;[5.00115966796875, 0]
1579081717.8337;[21.640869140625, 0]
1579081717.8337085;[43.14361572265625, 0]
1579081717.8337166;[66.1868896484375, 0]
1579081717.8337245;[85.9124755859375, 0]
1579081717.833733;[97.39764404296875, 0]
1579081717.8337407;[97.50634765625, 0]
1579081717.8337488;[86.2490234375, 0]
1579081717.8337564;[66.8380126953125, 0]
1579081717.8337648;[44.29864501953125, 0]
1579081717.8337731;[23.38763427734375, 0]
1579081717.8337812;[6.86346435546875, 0]
1579081717.8349402;[-5.0228271484375, 0]
1579081717.8355129;[-13.86053466796875, 0]
1579081717.8355312;[-21.69580078125, 0]
1579081717.8355458;[-29.9151611328125, 0]
1579081717.8355591;[-38.8681640625, 0]
1579081717.8355737;[-48.08612060546875, 0]
1579081717.8355875;[-56.81817626953125, 0]
1579081717.835601;[-64.30474853515625, 0]
1579081717.835614;[-69.79248046875, 0]
1579081717.835628;[-72.49114990234375, 0]
1579081717.8356419;[-71.6614990234375, 0]
1579081718.2226863;[-66.96856689453125, 0]
1579081718.5106506;[-58.69195556640625, 0]
1579081718.5106826;[-47.8751220703125, 0]
1579081718.5107057;[-36.06256103515625, 0]
1579081718.510726;[-24.87542724609375, 0]
1579081718.510745;[-15.65234375, 0]
1579081718.5107634;[-9.272216796875, 0]
1579081718.5107815;[-6.11773681640625, 0]
1579081718.510798;[-6.083740234375, 0]
1579081718.510815;[-8.62481689453125, 0]
1579081718.5108316;[-12.812255859375, 0]
1579081718.5109584;[0.393155574798584, 0]
1579081718.510977;[0.3905942738056183, 0]
1579081718.5109947;[0.39443621039390564, 0]
1579081718.5110126;[0.3905942738056183, 0]
1579081718.5110312;[0.39187490940093994, 0]
1579081718.5110495;[0.39187490940093994, 0]
1579081718.511067;[-17.5225830078125, 0]
1579081718.5110836;[-21.732666015625, 0]
1579081718.5110998;[-24.8458251953125, 0]
1579081718.511116;[-26.7860107421875, 0]
1579081718.511134;[-27.97515869140625, 0]
1579081718.5111513;[-29.00482177734375, 0]
1579081718.5111685;[-30.29510498046875, 0]
1579081718.5111847;[-31.8529052734375, 0]
1579081718.5112019;[-33.29705810546875, 0]
1579081718.5112195;[-34.07684326171875, 0]
1579081718.5129418;[-33.76177978515625, 0]
1579081718.512972;[34.38999938964844, 0]
1579081718.5129948;[34.38999938964844, 0]
1579081718.513014;[34.38999938964844, 0]
1579081718.5130334;[34.38999938964844, 0]
1579081718.513052;[34.38999938964844, 0]
1579081718.5130692;[34.38999938964844, 0]
1579081718.5130863;[34.38999938964844, 0]
1579081718.5131028;[34.38999938964844, 0]
1579081718.5132332;[-32.36700439453125, 0]
1579081718.5132523;[-30.34808349609375, 0]
1579081718.5132697;[-28.458251953125, 0]
1579081718.5132878;[-27.43951416015625, 0]
1579081718.5133061;[-27.72918701171875, 0]
1579081718.5141215;[-29.28125, 0]
1579081718.5141475;[-31.66912841796875, 0]
1579081718.5141668;[-34.3701171875, 0]
1579081718.5142064;[-37.09222412109375, 0]
1579081718.5142617;[-39.96063232421875, 0]
1579081718.5142996;[-43.50225830078125, 0]
1579081718.7901826;[-48.28497314453125, 0]
1579081718.7902098;[-54.51190185546875, 0]
1579081718.7902293;[-61.7044677734375, 0]
1579081718.7902467;[-68.642333984375, 0]
1579081718.7902622;[-73.650146484375, 0]
1579081718.7902784;[-75.06988525390625, 0]
1579081718.7902925;[-71.7646484375, 0]
1579081718.7903068;[-63.4510498046875, 0]
1579081718.7903228;[-50.740203857421875, 0]
1579081718.7903378;[-34.914703369140625, 0]
1579081718.7903526;[-17.59130859375, 0]
1579081718.7904701;[-0.38031005859375, 0]
1579081718.7904973;[15.30560302734375, 0]
1579081718.790512;[28.37921142578125, 0]
1579081718.7905266;[38.062225341796875, 0]
1579081718.7905405;[43.93634033203125, 0]
1579081718.7905545;[46.00634765625, 0]
1579081718.7905695;[44.727081298828125, 0]
1579081718.7905834;[40.91217041015625, 0]
1579081718.7905974;[35.52618408203125, 0]
1579081718.7906115;[29.49261474609375, 0]
1579081718.7906258;[23.49749755859375, 0]
1579081718.8126311;[18.04376220703125, 0]
1579081718.8126607;[13.617431640625, 0]
1579081718.8126833;[10.711456298828125, 0]
1579081718.8127003;[9.8431396484375, 0]
1579081718.8127158;[11.3741455078125, 0]
1579081718.8127337;[15.38824462890625, 0]
1579081718.8127506;[21.609893798828125, 0]
1579081718.8127673;[29.685516357421875, 0]
1579081718.812783;[39.3026123046875, 0]
1579081718.8127987;[50.2137451171875, 0]
1579081718.8128152;[62.097320556640625, 0]
1579081719.0615606;[74.240234375, 0]
1579081719.0615728;[85.4969482421875, 0]
1579081719.0615861;[94.46539306640625, 0]
1579081719.0615969;[99.87454223632812, 0]
1579081719.0616074;[100.92828369140625, 0]
1579081719.061617;[97.4197998046875, 0]
1579081719.061627;[89.59063720703125, 0]
1579081719.0616376;[77.90097045898438, 0]
1579081719.061648;[62.9376220703125, 0]
1579081719.061658;[45.519256591796875, 0]
1579081719.0616677;[26.887481689453125, 0]
1579081719.1260345;[8.74456787109375, 0]
1579081719.1267455;[-6.936431884765625, 0]
1579081719.1267717;[-18.350372314453125, 0]
1579081719.1267915;[-24.28131103515625, 0]
1579081719.1268091;[-24.39227294921875, 0]
1579081719.1268249;[-19.26361083984375, 0]
1579081719.1268418;[-10.268035888671875, 0]
1579081719.126858;[0.663177490234375, 0]
1579081719.126874;[11.357177734375, 0]
1579081719.12689;[19.70513916015625, 0]
1579081719.126908;[24.041595458984375, 0]
1579081719.4112191;[23.4501953125, 0]
1579081719.4112458;[17.91351318359375, 0]
1579081719.4112647;[8.31231689453125, 0]
1579081719.4112835;[-3.751373291015625, 0]
1579081719.4113019;[-16.1920166015625, 0]
1579081719.411323;[-26.906524658203125, 0]
1579081719.4113417;[-34.157867431640625, 0]
1579081719.411361;[-37.12286376953125, 0]
1579081719.4113975;[-36.171905517578125, 0]
1579081719.411416;[-32.819915771484375, 0]
1579081719.411434;[-29.35028076171875, 0]
1579081719.4842694;[-27.96356201171875, 0]
1579081719.484301;[-29.959716796875, 0]
1579081719.4843273;[-35.200714111328125, 0]
1579081719.4843502;[-42.21051025390625, 0]
1579081719.4843698;[-48.7420654296875, 0]
1579081719.4843879;[-52.662353515625, 0]
1579081719.4844058;[-52.77642822265625, 0]
1579081719.4844239;[-49.131072998046875, 0]
1579081719.4844415;[-42.858062744140625, 0]
1579081719.4844587;[-35.660064697265625, 0]
1579081719.484476;[-29.225860595703125, 0]
1579081719.5160027;[0.38931363821029663, 0]
1579081719.5487163;[0.39187490940093994, 0]
1579081719.5487485;[0.393155574798584, 0]
1579081719.54877;[0.39443621039390564, 0]
1579081719.5487893;[0.393155574798584, 0]
1579081719.5488074;[0.39443621039390564, 0]
1579081719.8187845;[-24.82525634765625, 0]
1579081719.8313282;[-23.287567138671875, 0]
1579081719.8313625;[-24.989959716796875, 0]
1579081719.8313854;[-29.993682861328125, 0]
1579081719.8314059;[-37.78106689453125, 0]
1579081719.831424;[-47.0313720703125, 0]
1579081719.831442;[-55.430694580078125, 0]
1579081719.8314598;[-59.87164306640625, 0]
1579081719.831478;[-57.26055908203125, 0]
1579081719.8314972;[-45.587615966796875, 0]
1579081719.8315144;[-24.964630126953125, 0]
1579081719.831661;[2.056640625, 0]
1579081719.8316815;[30.943389892578125, 0]
1579081719.8324785;[56.463470458984375, 0]
1579081719.8325033;[74.16928100585938, 0]
1579081719.8325236;[81.60415649414062, 0]
1579081719.8325412;[78.82168579101562, 0]
1579081719.8325596;[68.04241943359375, 0]
1579081719.8325777;[52.65557861328125, 0]
1579081719.832595;[36.0010986328125, 0]
1579081719.832612;[20.340087890625, 0]
1579081719.8326287;[6.3896484375, 0]
1579081720.0157292;[-6.33782958984375, 0]
1579081720.0257847;[-18.71673583984375, 0]
1579081720.0258021;[-31.114837646484375, 0]
1579081720.0258143;[-42.8389892578125, 0]
1579081720.0258262;[-52.221527099609375, 0]
1579081720.0258384;[-57.36077880859375, 0]
1579081720.0258489;[-57.009765625, 0]
1579081720.0258589;[-51.1820068359375, 0]
1579081720.0258708;[-41.293548583984375, 0]
1579081720.025882;[-29.703887939453125, 0]
1579081720.0258925;[-19.0404052734375, 0]
1579081720.2132163;[34.369998931884766, 0]
1579081720.2264202;[34.369998931884766, 0]
1579081720.2264495;[34.369998931884766, 0]
1579081720.2264686;[34.369998931884766, 0]
1579081720.226486;[34.349998474121094, 0]
1579081720.2265024;[34.349998474121094, 0]
1579081720.2265182;[34.349998474121094, 0]
1579081720.226533;[34.349998474121094, 0]
1579081720.226551;[-11.568939208984375, 0]
1579081720.2265677;[-8.89605712890625, 0]
1579081720.2265835;[-11.970901489257812, 0]
1579081720.2265992;[-21.059646606445312, 0]
1579081720.2266161;[-35.70448303222656, 0]
1579081720.2266324;[-54.60273742675781, 0]
1579081720.2266495;[-75.54925537109375, 0]
1579081720.2266657;[-95.70744323730469, 0]
1579081720.226683;[-112.0758056640625, 0]
1579081720.226699;[-122.21589660644531, 0]
1579081720.226715;[-124.7210693359375, 0]
1579081720.4375544;[-119.32609558105469, 0]
1579081720.4517179;[-106.48489379882812, 0]
1579081720.4517336;[-86.78921508789062, 0]
1579081720.451745;[-60.54804992675781, 0]
1579081720.451755;[-28.031143188476562, 0]
1579081720.451765;[9.631179809570312, 0]
1579081720.451774;[49.40388488769531, 0]
1579081720.4517827;[86.09530639648438, 0]
1579081720.4517918;[113.44305419921875, 0]
1579081720.4518;[126.41342163085938, 0]
1579081720.4518085;[123.53219604492188, 0]
1579081720.5090234;[107.9972152709961, 0]
1579081720.5232224;[86.66354370117188, 0]
1579081720.5232518;[67.22623443603516, 0]
1579081720.5232737;[55.15008544921875, 0]
1579081720.5232933;[51.78831481933594, 0]
1579081720.5233107;[54.667999267578125, 0]
1579081720.523328;[59.61604309082031, 0]
1579081720.5233436;[63.198150634765625, 0]
1579081720.523359;[64.1585464477539, 0]
1579081720.5233743;[63.225685119628906, 0]
1579081720.523391;[61.867652893066406, 0]
1579081720.6793406;[60.86402130126953, 0]
1579081720.7052963;[59.82023620605469, 0]
1579081720.7053251;[57.69651794433594, 0]
1579081720.705347;[53.79718017578125, 0]
1579081720.7053661;[48.412757873535156, 0]
1579081720.705384;[42.8093376159668, 0]
1579081720.7054124;[38.50722885131836, 0]
1579081720.70544;[36.39499282836914, 0]
1579081720.705458;[36.224300384521484, 0]
1579081720.7054744;[36.559879302978516, 0]
1579081720.7054906;[35.37828826904297, 0]
1579081720.8562806;[30.885902404785156, 0]
1579081720.878748;[22.214866638183594, 0]
1579081720.878773;[9.758106231689453, 0]
1579081720.8787928;[-4.910055160522461, 0]
1579081720.87881;[-19.491931915283203, 0]
1579081720.8788264;[-31.59883689880371, 0]
1579081720.8788419;[-39.2656135559082, 0]
1579081720.8788574;[-41.42101287841797, 0]
1579081720.878872;[-37.960628509521484, 0]
1579081720.8788865;[-29.740768432617188, 0]
1579081720.878901;[-18.30653953552246, 0]
1579081721.0691996;[0.3957168459892273, 0]
1579081721.0692165;[0.3982781171798706, 0]
1579081721.0692267;[0.3982781171798706, 0]
1579081721.0692358;[0.39955875277519226, 0]
1579081721.0692463;[0.39443621039390564, 0]
1579081721.0692565;[0.4008393883705139, 0]
1579081721.0692663;[-5.462479591369629, 0]
1579081721.0692756;[7.151632308959961, 0]
1579081721.0692847;[18.427051544189453, 0]
1579081721.0692928;[27.84604263305664, 0]
1579081721.0693026;[35.26897048950195, 0]
1579081721.0693119;[40.624549865722656, 0]
1579081721.0693204;[43.64765548706055, 0]
1579081721.0693288;[43.914649963378906, 0]
1579081721.0693374;[41.06596374511719, 0]
1579081721.0693462;[35.18235778808594, 0]
1579081721.0693548;[26.938613891601562, 0]
1579081721.2483191;[17.462806701660156, 0]
1579081721.2483819;[8.003043174743652, 0]
1579081721.2569423;[-0.44037723541259766, 0]
1579081721.2569683;[-7.385470390319824, 0]
1579081721.2569864;[-12.757808685302734, 0]
1579081721.2570014;[-16.743877410888672, 0]
1579081721.2570162;[-19.522123336791992, 0]
1579081721.2570302;[-21.191287994384766, 0]
1579081721.2570436;[-21.861862182617188, 0]
1579081721.2570589;[-21.752286911010742, 0]
1579081721.2570727;[-21.26319694519043, 0]
1579081721.6697555;[-20.878543853759766, 0]
1579081721.6697633;[-21.00691032409668, 0]
1579081721.6697702;[-21.823680877685547, 0]
1579081721.6697767;[-23.23410987854004, 0]
1579081721.6697829;[-25.088821411132812, 0]
1579081721.6697896;[-27.35885238647461, 0]
1579081721.6697965;[-30.30426025390625, 0]
1579081721.6698027;[-34.30147933959961, 0]
1579081721.6698093;[-39.54615020751953, 0]
1579081721.6698158;[-45.648128509521484, 0]
1579081721.6698217;[-51.44684982299805, 0]
1579081721.6698625;[-55.1619873046875, 0]
1579081721.6698685;[-54.98594284057617, 0]
1579081721.669875;[-49.72728729248047, 0]
1579081721.669881;[-39.3455696105957, 0]
1579081721.6698873;[-24.89183807373047, 0]
1579081721.6698933;[-8.112533569335938, 0]
1579081721.6699;[9.202342987060547, 0]
1579081721.6699061;[25.649620056152344, 0]
1579081721.6699123;[40.31610107421875, 0]
1579081721.6699183;[52.60321044921875, 0]
1579081721.6700237;[61.944610595703125, 0]
1579081721.705382;[67.740234375, 0]
1579081721.7681427;[69.54529571533203, 0]
1579081721.7681537;[67.29215240478516, 0]
1579081721.7681618;[61.48479461669922, 0]
1579081721.7681692;[53.052398681640625, 0]
1579081721.768176;[43.139854431152344, 0]
1579081721.7681823;[32.73057556152344, 0]
1579081721.7681885;[22.455535888671875, 0]
1579081721.768194;[12.633369445800781, 0]
1579081721.7682004;[3.3647613525390625, 0]
1579081721.7682073;[-5.245574951171875, 0]
1579081722.071402;[-13.025619506835938, 0]
1579081722.0851657;[-19.658767700195312, 0]
1579081722.0852263;[-24.763885498046875, 0]
1579081722.0852726;[-28.000839233398438, 0]
1579081722.0853102;[-29.156005859375, 0]
1579081722.08535;[-28.299774169921875, 0]
1579081722.0854037;[-25.827354431152344, 0]
1579081722.085446;[-22.50121307373047, 0]
1579081722.085483;[-19.286697387695312, 0]
1579081722.0868447;[-17.21375274658203, 0]
1579081722.0869;[-17.183738708496094, 0]
1579081722.0871649;[-19.760345458984375, 0]
1579081722.0872068;[-24.964637756347656, 0]
1579081722.0872464;[-32.136505126953125, 0]
1579081722.0872824;[-39.858642578125, 0]
1579081722.08732;[-46.11341857910156, 0]
1579081722.0873587;[-48.71417236328125, 0]
1579081722.0873957;[-45.88990783691406, 0]
1579081722.0874326;[-36.880340576171875, 0]
1579081722.087469;[-22.250106811523438, 0]
1579081722.0875058;[-3.804412841796875, 0]
1579081722.0875428;[15.988189697265625, 0]
1579081722.1462257;[34.369998931884766, 0]
1579081722.151905;[34.369998931884766, 0]
1579081722.1519284;[34.369998931884766, 0]
1579081722.1519444;[34.369998931884766, 0]
1579081722.1519592;[34.38999938964844, 0]
1579081722.1519728;[34.38999938964844, 0]
1579081722.1519823;[34.38999938964844, 0]
1579081722.1519947;[34.38999938964844, 0]
1579081722.3056047;[34.73109436035156, 0]
1579081722.687596;[50.75907897949219, 0]
1579081722.6876154;[63.39332580566406, 0]
1579081722.68763;[72.72740173339844, 0]
1579081722.6876426;[79.17724609375, 0]
1579081722.6876562;[83.05557250976562, 0]
1579081722.6876688;[84.33186340332031, 0]
1579081722.6876817;[82.73919677734375, 0]
1579081722.6876934;[78.039306640625, 0]
1579081722.6877058;[70.27166748046875, 0]
1579081722.6877184;[59.96299743652344, 0]
1579081722.687807;[48.15869140625, 0]
1579081722.6878197;[36.22853088378906, 0]
1579081722.6878326;[25.562515258789062, 0]
1579081722.6878452;[17.227218627929688, 0]
1579081722.6878576;[11.643768310546875, 0]
1579081722.6878705;[8.598983764648438, 0]
1579081722.6878822;[7.3770751953125, 0]
1579081722.6878948;[7.0612030029296875, 0]
1579081722.6879067;[6.833221435546875, 0]
1579081722.687919;[6.0885772705078125, 0]
1579081722.6879303;[4.4005126953125, 0]
1579081722.6887517;[0.3957168459892273, 0]
1579081722.688767;[0.4123651087284088, 0]
1579081722.6887805;[0.39699748158454895, 0]
1579081722.6887937;[0.39955875277519226, 0]
1579081722.6888063;[0.39187490940093994, 0]
1579081722.6888182;[0.39443621039390564, 0]
1579081722.6888306;[1.42620849609375, 0]
1579081722.6888437;[-3.0614471435546875, 0]
1579081722.6894944;[-9.057418823242188, 0]
1579081722.6895125;[-16.17095947265625, 0]
1579081722.6895278;[-23.708831787109375, 0]
1579081722.6895423;[-30.928939819335938, 0]
1579081722.689556;[-37.41094970703125, 0]
1579081722.6895697;[-43.18312072753906, 0]
1579081722.6895838;[-48.488677978515625, 0]
1579081722.6895971;[-53.314849853515625, 0]
1579081722.6896105;[-57.04814147949219, 0]
1579081722.7467017;[-58.45391845703125, 0]
1579081722.7599432;[-56.12940979003906, 0]
1579081722.7599607;[-49.21722412109375, 0]
1579081722.7599692;[-37.8826904296875, 0]
1579081722.7599764;[-23.4443359375, 0]
1579081722.7599838;[-7.9637908935546875, 0]
1579081722.7599902;[6.4588165283203125, 0]
1579081722.759997;[18.149139404296875, 0]
1579081722.7600036;[26.093551635742188, 0]
1579081722.76001;[29.911712646484375, 0]
1579081722.7600164;[29.689407348632812, 0]
1579081723.2945876;[25.752349853515625, 0]
1579081723.2945998;[18.613616943359375, 0]
1579081723.2946076;[9.038421630859375, 0]
1579081723.2946155;[-1.931365966796875, 0]
1579081723.2946227;[-12.898178100585938, 0]
1579081723.2946293;[-22.47247314453125, 0]
1579081723.2946362;[-29.713287353515625, 0]
1579081723.2946427;[-34.42344665527344, 0]
1579081723.2946486;[-37.18096923828125, 0]
1579081723.294655;[-38.96812438964844, 0]
1579081723.3981233;[-40.72137451171875, 0]
1579081723.398173;[-42.888214111328125, 0]
1579081723.39818;[-45.205963134765625, 0]
1579081723.3981862;[-46.684234619140625, 0]
1579081723.3981922;[-46.292633056640625, 0]
1579081723.3981986;[-43.604888916015625, 0]
1579081723.3982053;[-38.981353759765625, 0]
1579081723.3982108;[-33.477783203125, 0]
1579081723.398217;[-28.411117553710938, 0]
1579081723.3982239;[-24.960494995117188, 0]
1579081723.3982303;[-23.822891235351562, 0]
1579081723.3982365;[-24.977615356445312, 0]
1579081723.3982754;[-27.180816650390625, 0]
1579081723.3982818;[-28.72027587890625, 0]
1579081723.3982873;[-27.959091186523438, 0]
1579081723.3982935;[-23.548828125, 0]
1579081723.3982995;[-14.427047729492188, 0]
1579081723.398306;[0.05859375, 0]
1579081723.3983114;[19.7318115234375, 0]
1579081723.3983176;[43.52154541015625, 0]
1579081723.3984659;[69.53884887695312, 0]
1579081724.1202626;[0.39443621039390564, 0]
1579081724.1255624;[-145.07894897460938, 0]
1579081724.1339629;[-164.12051391601562, 0]
1579081724.1339817;[-193.93197631835938, 0]
1579081724.133996;[-235.7196044921875, 0]
1579081724.1340094;[-287.7527770996094, 0]
1579081724.1340222;[-346.7401123046875, 0]
1579081724.1340346;[-408.1334228515625, 0]
1579081724.1340475;[-452.06048583984375, 0]
1579081724.1340601;[-461.1966857910156, 0]
1579081724.1340728;[-427.72344970703125, 0]
1579081724.1340866;[-358.4793701171875, 0]
1579081724.134099;[34.369998931884766, 0]
1579081724.1341114;[34.369998931884766, 0]
1579081724.1341238;[34.369998931884766, 0]
1579081724.1341355;[34.369998931884766, 0]
1579081724.1341476;[34.38999938964844, 0]
1579081724.1341608;[34.38999938964844, 0]
1579081724.1341727;[34.38999938964844, 0]
1579081724.1341844;[34.38999938964844, 0]
1579081724.3213675;[-268.7550048828125, 0]
1579081724.3501766;[-175.2512664794922, 0]
1579081724.350197;[-90.16242218017578, 0]
1579081724.3502119;[-23.71963119506836, 0]
1579081724.350226;[31.883407592773438, 0]
1579081724.3502383;[83.9845962524414, 0]
1579081724.3502517;[135.40036010742188, 0]
1579081724.3502648;[185.5435791015625, 0]
1579081724.3502774;[229.33526611328125, 0]
1579081724.3502896;[260.06475830078125, 0]
1579081724.3503127;[266.42376708984375, 0]
1579081724.7303772;[242.5652313232422, 0]
1579081724.7388973;[190.8731689453125, 0]
1579081724.7389174;[122.60076904296875, 0]
1579081724.7389317;[51.37676239013672, 0]
1579081724.738946;[-11.16720199584961, 0]
1579081724.7389596;[-56.329647064208984, 0]
1579081724.7389722;[-81.47114562988281, 0]
1579081724.7389839;[-83.841796875, 0]
1579081724.7389958;[-66.515625, 0]
1579081724.7390077;[-39.14765548706055, 0]
1579081724.7390203;[-12.561845779418945, 0]
1579081724.7391047;[8.62632942199707, 0]
1579081724.7391171;[24.315670013427734, 0]
1579081724.7391293;[36.46887969970703, 0]
1579081724.7391412;[48.6417350769043, 0]
1579081724.739153;[63.22869873046875, 0]
1579081724.7391648;[80.77295684814453, 0]
1579081724.7391768;[99.82223510742188, 0]
1579081724.7391887;[118.81175994873047, 0]
1579081724.739201;[136.28253173828125, 0]
1579081724.739892;[150.64273071289062, 0]
1579081724.7399092;[158.05091857910156, 0]
1579081724.8163006;[147.8743438720703, 0]
1579081724.822666;[119.12319946289062, 0]
1579081724.822678;[79.32328033447266, 0]
1579081724.8226867;[39.7909049987793, 0]
1579081724.822694;[8.841734886169434, 0]
1579081724.8227012;[-10.48501205444336, 0]
1579081724.8227074;[-18.99730682373047, 0]
1579081724.8227139;[-19.81720542907715, 0]
1579081724.8227198;[-18.469268798828125, 0]
1579081724.8374681;[-20.500804901123047, 0]
1579081724.8374794;[-28.733264923095703, 0]
1579081725.3533664;[-45.49478530883789, 0]
1579081725.353384;[-72.27628326416016, 0]
1579081725.3533995;[-108.21517181396484, 0]
1579081725.3534136;[-148.40399169921875, 0]
1579081725.3534281;[-183.7576904296875, 0]
1579081725.3534422;[-198.17832946777344, 0]
1579081725.3534553;[-185.08216857910156, 0]
1579081725.3534687;[-148.2028350830078, 0]
1579081725.353483;[-98.4419937133789, 0]
1579081725.3534975;[-49.39751434326172, 0]
1579081725.35352;[-12.147651672363281, 0]
1579081725.3633902;[9.090047836303711, 0]
1579081725.363408;[17.58928680419922, 0]
1579081725.3634233;[23.1125545501709, 0]
1579081725.3634367;[34.6987190246582, 0]
1579081725.3634505;[55.918609619140625, 0]
1579081725.3634644;[85.91004180908203, 0]
1579081725.363479;[120.89068603515625, 0]
1579081725.363493;[154.9760284423828, 0]
1579081725.363506;[180.693115234375, 0]
1579081725.36352;[192.310791015625, 0]
1579081725.363534;[180.34469604492188, 0]
1579081725.3636222;[147.13926696777344, 0]
1579081725.3636367;[102.81008911132812, 0]
1579081725.363651;[59.026634216308594, 0]
1579081725.3636646;[24.381465911865234, 0]
1579081725.3636782;[1.8989267349243164, 0]
1579081725.3636923;[-10.383933067321777, 0]
1579081725.363706;[-18.624053955078125, 0]
1579081725.3637197;[-29.314544677734375, 0]
1579081725.363733;[-46.05891799926758, 0]
1579081725.3639705;[-68.31278228759766, 0]
1579081725.3639872;[-94.59361267089844, 0]
1579081725.769385;[-123.22477722167969, 0]
1579081725.7694032;[-151.09339904785156, 0]
1579081725.7694182;[-173.4132843017578, 0]
1579081725.7694325;[-177.57437133789062, 0]
1579081725.769446;[-159.66107177734375, 0]
1579081726.2539186;[34.369998931884766, 0]
1579081726.2539458;[34.369998931884766, 0]
1579081726.2539651;[-49.37567901611328, 0]
1579081726.2539809;[-50.14976501464844, 0]
1579081726.2539973;[-49.28118896484375, 0]
1579081726.2540123;[-45.01385498046875, 0]
1579081726.2540276;[-36.22795104980469, 0]
1579081726.254039;[-23.045562744140625, 0]
1579081726.2540498;[-7.5821685791015625, 0]
1579081726.254062;[7.461517333984375, 0]
1579081726.2547886;[20.489395141601562, 0]
1579081726.2548091;[30.971527099609375, 0]
1579081726.2548242;[39.63429260253906, 0]
1579081726.3604288;[43.620086669921875, 0]
1579081726.3742733;[42.54498291015625, 0]
1579081726.3742971;[37.53648376464844, 0]
1579081726.3743126;[30.537628173828125, 0]
1579081726.3743289;[22.883071899414062, 0]
1579081726.3743432;[15.426162719726562, 0]
1579081726.3743572;[8.860549926757812, 0]
1579081726.3743715;[3.546112060546875, 0]
1579081726.374385;[-0.451690673828125, 0]
1579081726.3743987;[-3.43017578125, 0]
1579081726.3744147;[-5.3530120849609375, 0]
1579081727.1884522;[-6.6866455078125, 0]
1579081727.2579424;[-8.400238037109375, 0]
1579081727.2579749;[-12.068145751953125, 0]
1579081727.2579935;[-18.84564208984375, 0]
1579081727.2580094;[-28.54388427734375, 0]
1579081727.258025;[-39.39044189453125, 0]
1579081727.2580404;[-48.45867919921875, 0]
1579081727.2580562;[-52.6123046875, 0]
1579081727.2580724;[-49.093170166015625, 0]
1579081727.2580867;[-37.002777099609375, 0]
1579081727.2581007;[-17.47943115234375, 0]
1579081727.2581968;[6.637969970703125, 0]
1579081727.2582111;[31.87664794921875, 0]
1579081727.2582233;[55.2047119140625, 0]
1579081727.2582376;[74.60968017578125, 0]
1579081727.258251;[89.17990112304688, 0]
1579081727.2582643;[98.70681762695312, 0]
1579081727.2582781;[103.58010864257812, 0]
1579081727.2582908;[104.121826171875, 0]
1579081727.258304;[100.66900634765625, 0]
1579081727.2583165;[93.7044677734375, 0]
1579081727.2583296;[84.01968383789062, 0]
1579081727.259991;[72.65402221679688, 0]
1579081727.2600098;[60.712432861328125, 0]
1579081727.2600236;[49.061614990234375, 0]
1579081727.260038;[38.09832763671875, 0]
1579081727.2600515;[27.97967529296875, 0]
1579081727.264109;[18.57305908203125, 0]
1579081727.2649848;[9.774566650390625, 0]
1579081727.2650137;[1.720794677734375, 0]
1579081727.2650344;[-5.222198486328125, 0]
1579081727.2650518;[-10.632720947265625, 0]
1579081727.265069;[-14.37493896484375, 0]
1579081727.265296;[0.39699748158454895, 0]
1579081727.265311;[0.39699748158454895, 0]
1579081727.2653248;[0.39699748158454895, 0]
1579081727.2653394;[0.39699748158454895, 0]
1579081727.2653527;[0.39699748158454895, 0]
1579081727.2653666;[0.3957168459892273, 0]
1579081727.2653818;[-16.81402587890625, 0]
1579081727.2654347;[-18.834381103515625, 0]
1579081727.2654533;[-21.576873779296875, 0]
1579081727.2654667;[-26.091766357421875, 0]
1579081727.265479;[-32.947509765625, 0]
1579081727.2654912;[-41.93023681640625, 0]
1579081727.2654998;[-51.91864013671875, 0]
1579081727.2655067;[-61.004638671875, 0]
1579081727.2663;[-66.8314208984375, 0]
1579081727.2663171;[-67.181640625, 0]
1579081727.2663307;[-60.566650390625, 0]
1579081727.2664218;[-46.7230224609375, 0]
1579081727.266437;[-26.79644775390625, 0]
1579081727.288697;[-3.0740966796875, 0]
1579081727.2887213;[21.5999755859375, 0]
1579081727.2887425;[44.55242919921875, 0]
1579081727.2887647;[63.84661865234375, 0]
1579081727.2887812;[78.49481201171875, 0]
1579081727.2887952;[88.1932373046875, 0]
1579081727.2888105;[93.04327392578125, 0]
1579081727.2888243;[93.22265625, 0]
1579081727.2888372;[88.9915771484375, 0]
1579081727.3973796;[80.87725830078125, 0]
1579081727.3974032;[69.830078125, 0]
1579081727.3974214;[57.162841796875, 0]
1579081727.3974364;[44.279296875, 0]
1579081727.397458;[32.4110107421875, 0]
1579081727.3974738;[22.12652587890625, 0]
1579081727.3974876;[13.33935546875, 0]
1579081727.397501;[5.48468017578125, 0]
1579081727.3975143;[-1.9222412109375, 0]
1579081727.397527;[-8.9781494140625, 0]
1579081727.397542;[-15.35015869140625, 0]
1579081728.4261072;[-20.564453125, 0]
1579081728.4261193;[-24.38580322265625, 0]
1579081728.4261274;[-26.80419921875, 0]
1579081728.426134;[-28.3072509765625, 0]
1579081728.42614;[-29.72509765625, 0]
1579081728.426146;[-32.0135498046875, 0]
1579081728.4264588;[-35.834716796875, 0]
1579081728.4264755;[-41.21014404296875, 0]
1579081728.4264889;[-47.37451171875, 0]
1579081728.426499;[-52.7685546875, 0]
1579081728.426509;[-55.3193359375, 0]
1579081728.4265819;[-52.48175048828125, 0]
1579081728.4265933;[-42.3704833984375, 0]
1579081728.4266052;[-24.54486083984375, 0]
1579081728.4266157;[-0.345458984375, 0]
1579081728.4266264;[27.52752685546875, 0]
1579081728.4266372;[55.95440673828125, 0]
1579081728.426648;[82.11004638671875, 0]
1579081728.4266598;[104.06634521484375, 0]
1579081728.4266698;[120.8974609375, 0]
1579081728.427917;[133.61553955078125, 0]
1579081728.4279358;[143.337890625, 0]
1579081728.4279513;[150.31732177734375, 0]
1579081728.4279644;[153.6925048828125, 0]
1579081728.4283488;[152.40008544921875, 0]
1579081728.42837;[146.24371337890625, 0]
1579081728.428384;[136.11358642578125, 0]
1579081728.428398;[123.6339111328125, 0]
1579081728.4284105;[110.53515625, 0]
1579081728.4284246;[100.48443603515625, 0]
1579081728.4284377;[95.96673583984375, 0]
1579081728.4284499;[96.9866943359375, 0]
1579081728.4284625;[101.0443115234375, 0]
1579081728.4286067;[104.93121337890625, 0]
1579081728.42862;[106.612060546875, 0]
1579081728.4286313;[105.62841796875, 0]
